"mass","coupling"
2.701437798184486,0.000056912896281707245
2.6977382449328497,0.00005721046547490534
2.6977382449328497,0.00005721046547490534
2.6977382449328497,0.00005778340963053737
2.6977382449328497,0.00005778340963053737
2.6977382449328497,0.00005836209163505329
2.6977382449328497,0.00005836209163505329
2.6977382449328497,0.000058946568951138604
2.6977382449328497,0.000058946568951138604
2.6977382449328497,0.000059536899616948854
2.6977382449328497,0.000059536899616948854
2.6977382449328497,0.00006013314225187266
2.6977382449328497,0.00006013314225187266
2.6977382449328497,0.000060735356062353044
2.6977382449328497,0.000060735356062353044
2.6977382449328497,0.00006134360084776594
2.6977382449328497,0.00006134360084776594
2.6977382449328497,0.00006195793700635859
2.6977382449328497,0.00006195793700635859
2.6977382449328497,0.00006257842554124704
2.6977382449328497,0.00006257842554124704
2.6977382449328497,0.0000632051280664736
2.6977382449328497,0.0000632051280664736
2.6977382449328497,0.00006383810681312519
2.6977382449328497,0.00006383810681312519
2.6977382449328497,0.00006447742463551272
2.6977382449328497,0.00006447742463551272
2.6977382449328497,0.0000651231450174124
2.6977382449328497,0.0000651231450174124
2.6977382449328497,0.00006577533207837015
2.6977382449328497,0.00006577533207837015
2.6977382449328497,0.00006643405058006784
2.6977382449328497,0.00006643405058006784
2.6977382449328497,0.00006709936593275463
2.6977382449328497,0.00006709936593275463
2.6977382449328497,0.00006777134420174196
2.6977382449328497,0.00006777134420174196
2.6977382449328497,0.00006845005211396383
2.6977382449328497,0.00006845005211396383
2.6977382449328497,0.00006913555706460272
2.6977382449328497,0.00006913555706460272
2.6977382449328497,0.00006982792712378189
2.6977382449328497,0.00006982792712378189
2.6977382449328497,0.00007052723104332457
2.6977382449328497,0.00007052723104332457
2.6977382449328497,0.00007123353826358144
2.6977382449328497,0.00007123353826358144
2.6977382449328497,0.00007194691892032528
2.6977382449328497,0.00007194691892032528
2.6977382449328497,0.0000726674438517159
2.6977382449328497,0.0000726674438517159
2.6977382449328497,0.00007339518460533415
2.6977382449328497,0.00007339518460533415
2.6977382449328497,0.0000741302134452866
2.6977382449328497,0.0000741302134452866
2.6977382449328497,0.00007487260335938128
2.6977382449328497,0.00007487260335938128
2.6977382449328497,0.00007562242806637529
2.6977382449328497,0.00007562242806637529
2.6977382449328497,0.00007637976202329494
2.6977382449328497,0.00007637976202329494
2.6977382449328497,0.00007714468043282976
2.6977382449328497,0.00007714468043282976
2.6977382449328497,0.0000779172592507993
2.6977382449328497,0.0000779172592507993
2.6977382449328497,0.00007869757519369601
2.6977382449328497,0.00007869757519369601
2.6977382449328497,0.000079485705746303
2.6977382449328497,0.000079485705746303
2.6977382449328497,0.00008028172916938817
2.6977382449328497,0.00008028172916938817
2.6977382449328497,0.00008108572450747557
2.6977382449328497,0.00008108572450747557
2.6977382449328497,0.00008189777159669431
2.6977382449328497,0.00008189777159669431
2.6977382449328497,0.00008271795107270635
2.6977382449328497,0.00008271795107270635
2.6977382449328497,0.0000835463443787133
2.6977382449328497,0.0000835463443787133
2.6977382449328497,0.00008438303377354441
2.6977382449328497,0.00008438303377354441
2.6977382449328497,0.00008522810233982374
2.6977382449328497,0.00008522810233982374
2.6977382449328497,0.00008608163399222096
2.6977382449328497,0.00008608163399222096
2.6977382449328497,0.00008694371348578374
2.6977382449328497,0.00008694371348578374
2.6977382449328497,0.00008781442642435397
2.6977382449328497,0.00008781442642435397
2.6977382449328497,0.00008869385926906802
2.6977382449328497,0.00008869385926906802
2.6977382449328497,0.00008958209934694244
2.6977382449328497,0.00008958209934694244
2.6977382449328497,0.00009047923485954515
2.6977382449328497,0.00009047923485954515
2.6977382449328497,0.0000913853548917545
2.6977382449328497,0.0000913853548917545
2.6977382449328497,0.0000923005494206044
2.6977382449328497,0.0000923005494206044
2.6977382449328497,0.00009322490932421952
2.6977382449328497,0.00009322490932421952
2.6977382449328497,0.00009415852639083935
2.6977382449328497,0.00009415852639083935
2.6977382449328497,0.00009510149332793269
2.6977382449328497,0.00009510149332793269
2.6977382449328497,0.00009605390377140333
2.6977382449328497,0.00009605390377140333
2.6977382449328497,0.00009701585229488818
2.6977382449328497,0.00009701585229488818
2.6977382449328497,0.00009798743441914807
2.6977382449328497,0.00009798743441914807
2.6977382449328497,0.00009896874662155364
2.6977382449328497,0.00009896874662155364
2.6977382449328497,0.0000999598863456644
2.6977382449328497,0.0000999598863456644
2.6977382449328497,0.0001009609520109055
2.6977382449328497,0.0001009609520109055
2.6977382449328497,0.00010197204302234056
2.6977382449328497,0.00010197204302234056
2.6977382449328497,0.00010299325978054252
2.6977382449328497,0.00010299325978054252
2.6977382449328497,0.00010402470369156324
2.6977382449328497,0.00010402470369156324
2.6977382449328497,0.00010506647717700318
2.6977382449328497,0.00010506647717700318
2.6977382449328497,0.00010611868368418173
2.6977382449328497,0.00010611868368418173
2.6977382449328497,0.00010718142769640924
2.6977382449328497,0.00010718142769640924
2.6977382449328497,0.00010825481474336292
2.6977382449328497,0.00010825481474336292
2.6977382449328497,0.0001093389514115647
2.6977382449328497,0.0001093389514115647
2.6977382449328497,0.00011043394535496599
2.6977382449328497,0.00011043394535496599
2.6977382449328497,0.00011153990530563737
2.6977382449328497,0.00011153990530563737
2.6977382449328497,0.00011265694108456572
2.6977382449328497,0.00011265694108456572
2.6977382449328497,0.00011378516361255922
2.6977382449328497,0.00011378516361255922
2.6977382449328497,0.00011492468492126162
2.6977382449328497,0.00011492468492126162
2.6977382449328497,0.00011607561816427764
2.6977382449328497,0.00011607561816427764
2.6977382449328497,0.00011723807762840782
2.6977382449328497,0.00011723807762840782
2.6977382449328497,0.00011841217874499799
2.6977382449328497,0.00011841217874499799
2.6977382449328497,0.00011959803810140123
2.6977382449328497,0.00011959803810140123
2.6977382449328497,0.00012079577345255494
2.6977382449328497,0.00012079577345255494
2.6977382449328497,0.00012200550373267387
2.6977382449328497,0.00012200550373267387
2.6977382449328497,0.00012322734906706007
2.6977382449328497,0.00012322734906706007
2.6977382449328497,0.00012446143078403138
2.6977382449328497,0.00012446143078403138
2.6977382449328497,0.00012570787142696894
2.6977382449328497,0.00012570787142696894
2.6977382449328497,0.0001269667947664865
2.6977382449328497,0.0001269667947664865
2.6977382449328497,0.0001282383258127196
2.6977382449328497,0.0001282383258127196
2.6977382449328497,0.00012952259082773965
2.6977382449328497,0.00012952259082773965
2.6977382449328497,0.00013081971733809155
2.6977382449328497,0.00013081971733809155
2.6977382449328497,0.00013212983414745695
2.6977382449328497,0.00013212983414745695
2.6977382449328497,0.0001334530713494444
2.6977382449328497,0.0001334530713494444
2.6977382449328497,0.00013478956034050751
2.6977382449328497,0.00013478956034050751
2.6977382449328497,0.00013613943383299228
2.6977382449328497,0.00013613943383299228
2.6977382449328497,0.0001375028258683163
2.6977382449328497,0.0001375028258683163
2.6977382449328497,0.0001388798718302775
2.6977382449328497,0.0001388798718302775
2.6977382449328497,0.0001402707084584987
2.6977382449328497,0.0001402707084584987
2.6977382449328497,0.00014167547386200534
2.6977382449328497,0.00014167547386200534
2.6977382449328497,0.0001430943075329399
2.6977382449328497,0.0001430943075329399
2.6977382449328497,0.00014452735036041297
2.6977382449328497,0.00014452735036041297
2.6977382449328497,0.00014597474464449377
2.6977382449328497,0.00014597474464449377
2.6977382449328497,0.00014743663411034
2.6977382449328497,0.00014743663411034
2.6977382449328497,0.0001489131639224708
2.6977382449328497,0.0001489131639224708
2.6977382449328497,0.0001504044806991797
2.6977382449328497,0.0001504044806991797
2.6977382449328497,0.00015191073252709505
2.6977382449328497,0.00015191073252709505
2.6977382449328497,0.00015343206897588442
2.6977382449328497,0.00015343206897588442
2.6977382449328497,0.0001549686411131068
2.6977382449328497,0.0001549686411131068
2.6977382449328497,0.00015652060151921353
2.6977382449328497,0.00015652060151921353
2.6977382449328497,0.0001580881043026995
2.6977382449328497,0.0001580881043026995
2.6977382449328497,0.00015967130511540582
2.6977382449328497,0.00015967130511540582
2.6977382449328497,0.0001612703611679758
2.6977382449328497,0.0001612703611679758
2.6977382449328497,0.0001628854312454669
2.6977382449328497,0.0001628854312454669
2.6977382449328497,0.0001645166757231163
2.6977382449328497,0.0001645166757231163
2.6977382449328497,0.0001661642565822672
2.6977382449328497,0.0001661642565822672
2.6977382449328497,0.00016782833742645312
2.6977382449328497,0.00016782833742645312
2.6977382449328497,0.0001695090834976436
2.6977382449328497,0.0001695090834976436
2.6977382449328497,0.0001712066616926526
2.6977382449328497,0.0001712066616926526
2.6977382449328497,0.00017292124057971103
2.6977382449328497,0.00017292124057971103
2.6977382449328497,0.00017465299041520644
2.6977382449328497,0.00017465299041520644
2.6977382449328497,0.0001764020831605878
2.6977382449328497,0.0001764020831605878
2.6977382449328497,0.00017816869249944215
2.6977382449328497,0.00017816869249944215
2.6977382449328497,0.00017995299385474106
2.6977382449328497,0.00017995299385474106
2.6977382449328497,0.0001817551644062599
2.6977382449328497,0.0001817551644062599
2.6977382449328497,0.0001835753831081717
2.6977382449328497,0.0001835753831081717
2.6977382449328497,0.00018541383070681732
2.6977382449328497,0.00018541383070681732
2.6977382449328497,0.0001872706897586531
2.6977382449328497,0.0001872706897586531
2.6977382449328497,0.00018914614464837852
2.6977382449328497,0.00018914614464837852
2.6977382449328497,0.00019104038160724668
2.6977382449328497,0.00019104038160724668
2.6977382449328497,0.00019295358873155498
2.6977382449328497,0.00019295358873155498
2.6977382449328497,0.0001948859560013242
2.6977382449328497,0.0001948859560013242
2.6977382449328497,0.00019683767529916308
2.6977382449328497,0.00019683767529916308
2.6977382449328497,0.00019880894042932214
2.6977382449328497,0.00019880894042932214
2.6977382449328497,0.00020079994713693823
2.6977382449328497,0.00020079994713693823
2.6977382449328497,0.00020281089312747193
2.6977382449328497,0.00020281089312747193
2.6977382449328497,0.00020484197808633955
2.6977382449328497,0.00020484197808633955
2.6977382449328497,0.00020689340369874133
2.6977382449328497,0.00020689340369874133
2.6977382449328497,0.0002089653736696902
2.6977382449328497,0.0002089653736696902
2.6977382449328497,0.00021105809374423717
2.6977382449328497,0.00021105809374423717
2.6977382449328497,0.00021317177172790324
2.6977382449328497,0.00021317177172790324
2.6977382449328497,0.000215306617507314
2.6977382449328497,0.000215306617507314
2.6977382449328497,0.00021746284307104104
2.6977382449328497,0.00021746284307104104
2.6977382449328497,0.00021964066253065247
2.6977382449328497,0.00021964066253065247
2.6977382449328497,0.00022184029214197349
2.6977382449328497,0.00022184029214197349
2.6977382449328497,0.00022406195032656203
2.6977382449328497,0.00022406195032656203
2.6977382449328497,0.00022630585769339555
2.6977382449328497,0.00022630585769339555
2.6977382449328497,0.0002285722370607789
2.6977382449328497,0.0002285722370607789
2.6977382449328497,0.00023086131347846954
2.6977382449328497,0.00023086131347846954
2.6977382449328497,0.00023317331425002489
2.6977382449328497,0.00023317331425002489
2.6977382449328497,0.00023550846895537334
2.6977382449328497,0.00023550846895537334
2.6977382449328497,0.00023786700947361143
2.6977382449328497,0.00023786700947361143
2.6977382449328497,0.00024024917000602927
2.6977382449328497,0.00024024917000602927
2.6977382449328497,0.00024265518709936602
2.6977382449328497,0.00024265518709936602
2.6977382449328497,0.00024508529966930063
2.6977382449328497,0.00024508529966930063
2.6977382449328497,0.0002475397490241733
2.6977382449328497,0.0002475397490241733
2.6977382449328497,0.0002500187788889492
2.6977382449328497,0.0002500187788889492
2.6977382449328497,0.0002525226354294192
2.6977382449328497,0.0002525226354294192
2.6977382449328497,0.00025505156727664467
2.6977382449328497,0.00025505156727664467
2.6977382449328497,0.00025760582555164576
2.6977382449328497,0.00025760582555164576
2.6977382449328497,0.0002601856638903378
2.6977382449328497,0.0002601856638903378
2.6977382449328497,0.0002627913384687166
2.6977382449328497,0.0002627913384687166
2.6977382449328497,0.00026542310802829853
2.6977382449328497,0.00026542310802829853
2.6977382449328497,0.00026808123390181034
2.6977382449328497,0.00026808123390181034
2.6977382449328497,0.0002707659800391414
2.6977382449328497,0.0002707659800391414
2.6977382449328497,0.00027347761303355306
2.6977382449328497,0.00027347761303355306
2.6977382449328497,0.0002762164021481513
2.6977382449328497,0.0002762164021481513
2.6977382449328497,0.0002789826193426243
2.6977382449328497,0.0002789826193426243
2.6977382449328497,0.0002817765393002478
2.6977382449328497,0.0002817765393002478
2.6977382449328497,0.0002845984394551606
2.6977382449328497,0.0002845984394551606
2.6977382449328497,0.00028744860001991514
2.6977382449328497,0.00028744860001991514
2.6977382449328497,0.0002903273040133
2.6977382449328497,0.0002903273040133
2.6977382449328497,0.000293234837288445
2.6977382449328497,0.000293234837288445
2.6977382449328497,0.00029617148856120584
2.6977382449328497,0.00029617148856120584
2.6977382449328497,0.0002991375494388334
2.6977382449328497,0.0002991375494388334
2.6977382449328497,0.00030213331444893006
2.6977382449328497,0.00030213331444893006
2.6977382449328497,0.0003051590810686961
2.6977382449328497,0.0003051590810686961
2.6977382449328497,0.00030821514975446895
2.6977382449328497,0.00030821514975446895
2.6977382449328497,0.00031130182397155775
2.6977382449328497,0.00031130182397155775
2.6977382449328497,0.0003144194102243794
2.6977382449328497,0.0003144194102243794
2.6977382449328497,0.00031756821808689095
2.6977382449328497,0.00031756821808689095
2.6977382449328497,0.0003207485602333321
2.6977382449328497,0.0003207485602333321
2.6977382449328497,0.0003239607524692733
2.6977382449328497,0.0003239607524692733
2.6977382449328497,0.0003272051137629747
2.6977382449328497,0.0003272051137629747
2.6977382449328497,0.00033048196627705954
2.6977382449328497,0.00033048196627705954
2.6977382449328497,0.0003337916354005041
2.6977382449328497,0.0003337916354005041
2.6977382449328497,0.00033713444978095125
2.6977382449328497,0.00033713444978095125
2.6977382449328497,0.0003405107413573399
2.6977382449328497,0.0003405107413573399
2.6977382449328497,0.0003439208453928715
2.6977382449328497,0.0003439208453928715
2.6977382449328497,0.0003473651005082979
2.6977382449328497,0.0003473651005082979
2.6977382449328497,0.0003508438487155478
2.6977382449328497,0.0003508438487155478
2.6977382449328497,0.00035435743545168775
2.6977382449328497,0.00035435743545168775
2.6977382449328497,0.0003579062096132235
2.6977382449328497,0.0003579062096132235
2.6977382449328497,0.0003614905235907466
2.6977382449328497,0.0003614905235907466
2.6977382449328497,0.00036511073330392445
2.6977382449328497,0.00036511073330392445
2.6977382449328497,0.00036876719823684414
2.6977382449328497,0.00036876719823684414
2.6977382449328497,0.0003724602814737084
2.6977382449328497,0.0003724602814737084
2.6977382449328497,0.0003761903497348909
2.6977382449328497,0.0003761903497348909
2.6977382449328497,0.00037995777341334904
2.6977382449328497,0.00037995777341334904
2.6977382449328497,0.0003837629266114055
2.6977382449328497,0.0003837629266114055
2.6977382449328497,0.00038760618717789523
2.6977382449328497,0.00038760618717789523
2.6977382449328497,0.00039148793674568714
2.6977382449328497,0.00039148793674568714
2.6977382449328497,0.0003954085607695778
2.6977382449328497,0.0003954085607695778
2.6977382449328497,0.0003993684485645678
2.6977382449328497,0.0003993684485645678
2.6977382449328497,0.00040336799334452183
2.6977382449328497,0.00040336799334452183
2.6977382449328497,0.00040740759226121185
2.6977382449328497,0.00040740759226121185
2.6977382449328497,0.0004114876464437558
2.6977382449328497,0.0004114876464437558
2.6977382449328497,0.00041560856103844897
2.6977382449328497,0.00041560856103844897
2.6977382449328497,0.00041977074524899454
2.6977382449328497,0.00041977074524899454
2.6977382449328497,0.0004239746123771375
2.6977382449328497,0.0004239746123771375
2.6977382449328497,0.00042822057986370446
2.6977382449328497,0.00042822057986370446
2.6977382449328497,0.00043250906933005713
2.6977382449328497,0.00043250906933005713
2.6977382449328497,0.00043684050661995603
2.6977382449328497,0.00043684050661995603
2.6977382449328497,0.0004412153218418496
2.6977382449328497,0.0004412153218418496
2.6977382449328497,0.0004456339494115811
2.6977382449328497,0.0004456339494115811
2.6977382449328497,0.0004500968280955271
2.6977382449328497,0.0004500968280955271
2.6977382449328497,0.0004546044010541663
2.6977382449328497,0.0004546044010541663
2.6977382449328497,0.00045915711588608466
2.6977382449328497,0.00045915711588608466
2.6977382449328497,0.0004637554246724234
2.6977382449328497,0.0004637554246724234
2.6977382449328497,0.0004683997840217672
2.6977382449328497,0.0004683997840217672
2.6977382449328497,0.0004730906551154885
2.6977382449328497,0.0004730906551154885
2.6977382449328497,0.0004778285037535395
2.6977382449328497,0.0004778285037535395
2.6977382449328497,0.00048261380040070747
2.6977382449328497,0.00048261380040070747
2.6977382449328497,0.00048744702023333113
2.6977382449328497,0.00048744702023333113
2.6977382449328497,0.0004923286431864853
2.6977382449328497,0.0004923286431864853
2.6977382449328497,0.0004972591540016379
2.6977382449328497,0.0004972591540016379
2.6977382449328497,0.0005022390422747845
2.6977382449328497,0.0005022390422747845
2.6977382449328497,0.0005072688025050658
2.6977382449328497,0.0005072688025050658
2.6977382449328497,0.0005123489341438692
2.6977382449328497,0.0005123489341438692
2.6977382449328497,0.0005174799416444245
2.6977382449328497,0.0005174799416444245
2.6977382449328497,0.0005226623345118977
2.6977382449328497,0.0005226623345118977
2.6977382449328497,0.0005278966273539815
2.6977382449328497,0.0005278966273539815
2.6977382449328497,0.0005331833399319973
2.6977382449328497,0.0005331833399319973
2.6977382449328497,0.0005385229972125064
2.6977382449328497,0.0005385229972125064
2.6977382449328497,0.000543916129419439
2.6977382449328497,0.000543916129419439
2.6977382449328497,0.0005493632720867461
2.6977382449328497,0.0005493632720867461
2.6977382449328497,0.0005548649661115749
2.6977382449328497,0.0005548649661115749
2.6977382449328497,0.0005604217578079828
2.6977382449328497,0.0005604217578079828
2.6977382449328497,0.0005660341989611832
2.6977382449328497,0.0005660341989611832
2.6977382449328497,0.0005717028468823388
2.6977382449328497,0.0005717028468823388
2.6977382449328497,0.0005774282644639017
2.6977382449328497,0.0005774282644639017
2.6977382449328497,0.0005832110202355087
2.6977382449328497,0.0005832110202355087
2.6977382449328497,0.0005890516884204354
2.6977382449328497,0.0005890516884204354
2.6977382449328497,0.0005949508489926149
2.6977382449328497,0.0005949508489926149
2.6977382449328497,0.0006009090877342338
2.6977382449328497,0.0006009090877342338
2.6977382449328497,0.0006069269962938927
2.6977382449328497,0.0006069269962938927
2.6977382449328497,0.000613005172245361
2.6977382449328497,0.000613005172245361
2.6977382449328497,0.0006191442191469151
2.6977382449328497,0.0006191442191469151
2.6977382449328497,0.00062534474660127
2.6977382449328497,0.00062534474660127
2.6977382449328497,0.0006316073703161137
2.6977382449328497,0.0006316073703161137
2.6977382449328497,0.0006379327121652454
2.6977382449328497,0.0006379327121652454
2.6977382449328497,0.0006443214002503276
2.6977382449328497,0.0006443214002503276
2.6977382449328497,0.0006507740689632572
2.6977382449328497,0.0006507740689632572
2.6977382449328497,0.0006572913590491574
2.6977382449328497,0.0006572913590491574
2.6977382449328497,0.0006638739176700068
2.6977382449328497,0.0006638739176700068
2.6977382449328497,0.0006705223984688984
2.6977382449328497,0.0006705223984688984
2.6977382449328497,0.0006772374616349486
2.6977382449328497,0.0006772374616349486
2.6977382449328497,0.000684019773968852
2.6977382449328497,0.000684019773968852
2.6977382449328497,0.0006908700089490946
2.6977382449328497,0.0006908700089490946
2.6977382449328497,0.0006977888467988312
2.6977382449328497,0.0006977888467988312
2.6977382449328497,0.0007047769745534276
2.6977382449328497,0.0007047769745534276
2.6977382449328497,0.0007118350861286869
2.6977382449328497,0.0007118350861286869
2.6977382449328497,0.0007189638823897512
2.6977382449328497,0.0007189638823897512
2.6977382449328497,0.0007261640712206986
2.6977382449328497,0.0007261640712206986
2.6977382449328497,0.0007334363675948357
2.6977382449328497,0.0007334363675948357
2.6977382449328497,0.0007407814936456938
2.6977382449328497,0.0007407814936456938
2.6977382449328497,0.0007482001787387355
2.6977382449328497,0.0007482001787387355
2.6977382449328497,0.0007556931595437805
2.6977382449328497,0.0007556931595437805
2.6977382449328497,0.0007632611801081582
2.6977382449328497,0.0007632611801081582
2.6977382449328497,0.0007709049919305876
2.6977382449328497,0.0007709049919305876
2.6977382449328497,0.0007786253540358021
2.6977382449328497,0.0007786253540358021
2.6977382449328497,0.0007864230330499225
2.6977382449328497,0.0007864230330499225
2.6977382449328497,0.0007942988032765779
2.6977382449328497,0.0007942988032765779
2.6977382449328497,0.0008022534467737968
2.6977382449328497,0.0008022534467737968
2.6977382449328497,0.0008102877534316637
2.6977382449328497,0.0008102877534316637
2.6977382449328497,0.0008184025210507537
2.6977382449328497,0.0008184025210507537
2.6977382449328497,0.0008265985554213571
2.6977382449328497,0.0008265985554213571
2.724259229209734,0.0008265985554213571
2.724259229209734,0.0008265985554213571
2.751040936560228,0.0008265985554213571
2.751040936560228,0.0008265985554213571
2.77808593010644,0.0008265985554213571
2.77808593010644,0.0008265985554213571
2.805396798168074,0.0008265985554213571
2.805396798168074,0.0008265985554213571
2.8329761545101446,0.0008265985554213571
2.8329761545101446,0.0008265985554213571
2.8608266385931254,0.0008265985554213571
2.8608266385931254,0.0008265985554213571
2.8889509158255544,0.0008265985554213571
2.8889509158255544,0.0008265985554213571
2.917351677819128,0.0008265985554213571
2.917351677819128,0.0008265985554213571
2.9460316426462967,0.0008265985554213571
2.9460316426462967,0.0008265985554213571
2.9749935551003976,0.0008265985554213571
2.9749935551003976,0.0008265985554213571
3.004240186958342,0.0008265985554213571
3.004240186958342,0.0008265985554213571
3.033774337245887,0.0008265985554213571
3.033774337245887,0.0008265985554213571
3.0635988325055132,0.0008265985554213571
3.0635988325055132,0.0008265985554213571
3.093716527066937,0.0008265985554213571
3.093716527066937,0.0008265985554213571
3.124130303320282,0.0008265985554213571
3.124130303320282,0.0008265985554213571
3.1548430719919347,0.0008265985554213571
3.1548430719919347,0.0008265985554213571
3.1858577724231165,0.0008265985554213571
3.1858577724231165,0.0008265985554213571
3.217177372851187,0.0008265985554213571
3.217177372851187,0.0008265985554213571
3.2488048706937205,0.0008265985554213571
3.2488048706937205,0.0008265985554213571
3.2807432928353677,0.0008265985554213571
3.2807432928353677,0.0008265985554213571
3.3129956959175444,0.0008265985554213571
3.3129956959175444,0.0008265985554213571
3.3455651666309643,0.0008265985554213571
3.3455651666309643,0.0008265985554213571
3.377921470153702,0.0008265985554213571
3.377921470153702,0.0008265985554213571
3.41059070447453,0.0008265985554213571
3.41059070447453,0.0008265985554213571
3.4435758960727947,0.0008265985554213571
3.4435758960727947,0.0008265985554213571
3.4768801006981427,0.0008265985554213571
3.4768801006981427,0.0008265985554213571
3.5105064036536,0.0008265985554213571
3.5105064036536,0.0008265985554213571
3.5444579200813946,0.0008265985554213571
3.5444579200813946,0.0008265985554213571
3.578737795251549,0.0008265985554213571
3.578737795251549,0.0008265985554213571
3.613349204853251,0.0008265985554213571
3.613349204853251,0.0008265985554213571
3.6482953552890556,0.0008265985554213571
3.6482953552890556,0.0008265985554213571
3.683579483971924,0.0008265985554213571
3.683579483971924,0.0008265985554213571
3.719204859625134,0.0008265985554213571
3.719204859625134,0.0008265985554213571
3.7551747825851036,0.0008265985554213571
3.7551747825851036,0.0008265985554213571
3.7914925851071235,0.0008265985554213571
3.7914925851071235,0.0008265985554213571
3.828161631674067,0.0008265985554213571
3.828161631674067,0.0008265985554213571
3.86518531930807,0.0008265985554213571
3.86518531930807,0.0008265985554213571
3.9025670778852315,0.0008265985554213571
3.9025670778852315,0.0008265985554213571
3.9403103704533615,0.0008265985554213571
3.9403103704533615,0.0008265985554213571
3.9784186935527948,0.0008265985554213571
3.9784186935527948,0.0008265985554213571
4.016895577540308,0.0008265985554213571
4.016895577540308,0.0008265985554213571
4.0557445869161795,0.0008265985554213571
4.0557445869161795,0.0008265985554213571
4.094969320654399,0.0008265985554213571
4.094969320654399,0.0008265985554213571
4.134573412536076,0.0008265985554213571
4.134573412536076,0.0008265985554213571
4.17456053148608,0.0008265985554213571
4.17456053148608,0.0008265985554213571
4.2149343819129195,0.0008265985554213571
4.2149343819129195,0.0008265985554213571
4.255931063963028,0.0008258357301668362
4.255931063963028,0.0008258357301668362
4.297326501435364,0.0008250736088844734
4.297326501435364,0.0008250736088844734
4.339124572836157,0.0008243121909246097
4.339124572836157,0.0008243121909246097
4.3813291943960415,0.0008235514756381836
4.3813291943960415,0.0008235514756381836
4.423944320436983,0.0008227914623767347
4.423944320436983,0.0008227914623767347
4.466973943742775,0.0008220321504924002
4.466973943742775,0.0008220321504924002
4.510422095933136,0.000821273539337916
4.510422095933136,0.000821273539337916
4.554292847841458,0.0008205156282666132
4.554292847841458,0.0008205156282666132
4.598590309896207,0.0008197584166324218
4.598590309896207,0.0008197584166324218
4.643318632506052,0.0008190019037898672
4.643318632506052,0.0008190019037898672
4.688482006448733,0.0008182460890940715
4.688482006448733,0.0008182460890940715
4.7340846632637135,0.0008174909719007494
4.7340846632637135,0.0008174909719007494
4.780130875648647,0.0008167365515662124
4.780130875648647,0.0008167365515662124
4.826624957859706,0.0008159828274473655
4.826624957859706,0.0008159828274473655
4.873571266115801,0.0008152297989017079
4.873571266115801,0.0008152297989017079
4.920974199006732,0.0008144774652873295
4.920974199006732,0.0008144774652873295
4.9688381979053124,0.0008137258259629144
4.9688381979053124,0.0008137258259629144
5.017167747383497,0.0008129748802877384
5.017167747383497,0.0008129748802877384
5.065967375632559,0.000812224627621669
5.065967375632559,0.000812224627621669
5.115241654887359,0.0008114750673251622
5.115241654887359,0.0008114750673251622
5.16499520185473,0.0008107261987592668
5.16499520185473,0.0008107261987592668
5.21523267814604,0.0008099780212856199
5.21523267814604,0.0008099780212856199
5.265958790713956,0.0008092305342664489
5.265958790713956,0.0008092305342664489
5.317178292293455,0.0008084837370645675
5.317178292293455,0.0008084837370645675
5.368895981847134,0.0008077376290433794
5.368895981847134,0.0008077376290433794
5.420819274824277,0.0008069609414785148
5.420819274824277,0.0008069609414785148
5.473244724736982,0.000806185000744739
5.473244724736982,0.000806185000744739
5.526177188010435,0.0008054098061239307
5.526177188010435,0.0008054098061239307
5.579621568036951,0.0008046353568986578
5.579621568036951,0.0008046353568986578
5.633582815630184,0.0008038616523521774
5.633582815630184,0.0008038616523521774
5.688065929483756,0.0008030886917684382
5.688065929483756,0.0008030886917684382
5.743075956634306,0.0008023164744320754
5.743075956634306,0.0008023164744320754
5.798617992929023,0.0008015449996284118
5.798617992929023,0.0008015449996284118
5.854697183497696,0.0008007742666434596
5.854697183497696,0.0008007742666434596
5.9113187232293365,0.0008000042747639156
5.9113187232293365,0.0008000042747639156
5.968487857253406,0.0007992350232771622
5.968487857253406,0.0007992350232771622
6.026209881425696,0.0007984665114712695
6.026209881425696,0.0007984665114712695
6.084490142818908,0.0007976987386349898
6.084490142818908,0.0007976987386349898
6.143334040217984,0.0007969317040577591
6.143334040217984,0.0007969317040577591
6.2027470246202165,0.0007961654070296993
6.2027470246202165,0.0007961654070296993
6.262734599740205,0.0007953998468416124
6.262734599740205,0.0007953998468416124
6.323302322519689,0.0007946350227849824
6.323302322519689,0.0007946350227849824
6.384455803642317,0.0007938709341519767
6.384455803642317,0.0007938709341519767
6.4462007080533885,0.0007931075802354413
6.4462007080533885,0.0007931075802354413
6.508542755484632,0.0007923449603289021
6.508542755484632,0.0007923449603289021
6.571487720984042,0.0007915830737265664
6.571487720984042,0.0007915830737265664
6.635041435450858,0.0007908219197233179
6.635041435450858,0.0007908219197233179
6.6992097861757065,0.0007900614976147189
6.6992097861757065,0.0007900614976147189
6.763998717385968,0.0007893018066970104
6.763998717385968,0.0007893018066970104
6.831033872907629,0.0007886737942912061
6.831033872907629,0.0007886737942912061
6.898733385751573,0.0007880462815669912
6.898733385751573,0.0007880462815669912
6.967103840084696,0.0007874192681267927
6.967103840084696,0.0007874192681267927
7.036151885326805,0.0007867927535733517
7.036151885326805,0.0007867927535733517
7.105884236797325,0.0007861667375097255
7.105884236797325,0.0007861667375097255
7.1763076763683955,0.0007855412195392893
7.1763076763683955,0.0007855412195392893
7.247429053124446,0.0007849161992657316
7.247429053124446,0.0007849161992657316
7.3192552840283085,0.0007842916762930573
7.3192552840283085,0.0007842916762930573
7.39179335459394,0.0007836676502255853
7.39179335459394,0.0007836676502255853
7.465050319565789,0.0007830441206679518
7.465050319565789,0.0007830441206679518
7.539033303604928,0.0007824210872251051
7.539033303604928,0.0007824210872251051
7.613749501981948,0.000781798549502308
7.613749501981948,0.000781798549502308
7.689206181276764,0.0007811765071051395
7.689206181276764,0.0007811765071051395
7.765410680085305,0.0007805549596394903
7.765410680085305,0.0007805549596394903
7.84237040973325,0.0007799339067115646
7.84237040973325,0.0007799339067115646
7.920092854996828,0.0007793133479278822
7.920092854996828,0.0007793133479278822
7.99858557483074,0.0007786932828952736
7.99858557483074,0.0007786932828952736
8.077856203103314,0.0007780737112208824
8.077856203103314,0.0007780737112208824
8.157912449338962,0.0007774546325121668
8.157912449338962,0.0007774546325121668
8.238762099467941,0.0007768360463768951
8.238762099467941,0.0007768360463768951
8.320413016583615,0.0007762179524231479
8.320413016583615,0.0007762179524231479
8.40287314170716,0.0007756003502593195
8.40287314170716,0.0007756003502593195
8.486150494559881,0.0007749832394941138
8.486150494559881,0.0007749832394941138
8.570253174343193,0.0007743666197365469
8.570253174343193,0.0007743666197365469
8.65518936052629,0.0007737504905959449
8.65518936052629,0.0007737504905959449
8.740967313641649,0.0007731348516819472
8.740967313641649,0.0007731348516819472
8.827595376088441,0.0007725197026045014
8.827595376088441,0.0007725197026045014
8.915081972943836,0.0007719050429738658
8.915081972943836,0.0007719050429738658
9.003435612782434,0.0007712908724006106
9.003435612782434,0.0007712908724006106
9.088193391542532,0.0007693153143538778
9.088193391542532,0.0007693153143538778
9.173749074721488,0.0007673448164339217
9.173749074721488,0.0007673448164339217
9.26011017374151,0.0007653793656799059
9.26011017374151,0.0007653793656799059
9.347284270736862,0.0007634189491641937
9.347284270736862,0.0007634189491641937
9.43527901921955,0.0007614635539922588
9.43527901921955,0.0007614635539922588
9.524102144751255,0.000759513167302603
9.524102144751255,0.000759513167302603
9.613761445621618,0.0007575677762666713
9.613761445621618,0.0007575677762666713
9.704264793532886,0.000755627368088767
9.704264793532886,0.000755627368088767
9.79562013429102,0.0007536919300059674
9.79562013429102,0.0007536919300059674
9.887835488503303,0.0007517614492880425
9.887835488503303,0.0007517614492880425
9.980918952282503,0.0007498359132373668
9.980918952282503,0.0007498359132373668
10.074878697957697,0.0007479153091888388
10.074878697957697,0.0007479153091888388
10.169722974791751,0.000745999624509797
10.169722974791751,0.000745999624509797
10.265460109705572,0.000744088846599936
10.265460109705572,0.000744088846599936
10.362098508009188,0.0007421829628912266
10.362098508009188,0.0007421829628912266
10.45964665413968,0.0007402819608478287
10.45964665413968,0.0007402819608478287
10.558113112406092,0.0007383858279660118
10.558113112406092,0.0007383858279660118
10.657506527741335,0.0007364945517740719
10.657506527741335,0.0007364945517740719
10.757835626461176,0.0007346081198322495
10.757835626461176,0.0007346081198322495
10.859109217030378,0.0007327265197326491
10.859109217030378,0.0007327265197326491
10.96133619083603,0.0007308497390991549
10.96133619083603,0.0007308497390991549
11.064525522968193,0.0007289777655873512
11.064525522968193,0.0007289777655873512
11.16868627300785,0.0007271105868844411
11.16868627300785,0.0007271105868844411
11.273827585822325,0.0007252481907091651
11.273827585822325,0.0007252481907091651
11.379958692368142,0.00072339056481172
11.379958692368142,0.00072339056481172
11.487088910501473,0.0007215376969736808
11.487088910501473,0.0007215376969736808
11.595227645796207,0.000719689575007916
11.595227645796207,0.000719689575007916
11.69771316635634,0.0007163744946955181
11.69771316635634,0.0007163744946955181
11.801104514921356,0.0007130746845188279
11.801104514921356,0.0007130746845188279
11.905409697738076,0.0007097900741395664
11.905409697738076,0.0007097900741395664
12.010636791817312,0.0007065205935434503
12.010636791817312,0.0007065205935434503
12.116793945559296,0.0007032661730387017
12.116793945559296,0.0007032661730387017
12.223889379384676,0.0007000267432545613
12.223889379384676,0.0007000267432545613
12.331931386371052,0.0006968022351398097
12.331931386371052,0.0006968022351398097
12.440928332895192,0.0006935925799612961
12.440928332895192,0.0006935925799612961
12.55088865928088,0.0006903977093024713
12.55088865928088,0.0006903977093024713
12.661820880452499,0.0006872175550619321
12.661820880452499,0.0006872175550619321
12.77373358659439,0.0006840520494519684
12.77373358659439,0.0006840520494519684
12.886635443816074,0.0006809011249971176
12.886635443816074,0.0006809011249971176
13.00053519482329,0.0006777647145327279
13.00053519482329,0.0006777647145327279
13.11544165959502,0.0006746427512035235
13.11544165959502,0.0006746427512035235
13.231363736066452,0.0006715351684621838
13.231363736066452,0.0006715351684621838
13.337635659039096,0.0006680211961659758
13.337635659039096,0.0006680211961659758
13.444761138896553,0.0006645256115907368
13.444761138896553,0.0006645256115907368
13.552747031253496,0.0006610483185182118
13.552747031253496,0.0006610483185182118
13.661600246787676,0.0006575892212336313
13.661600246787676,0.0006575892212336313
13.771327751682142,0.000654148224523077
13.771327751682142,0.000654148224523077
13.881936568071085,0.0006507252336708605
13.881936568071085,0.0006507252336708605
13.993433774489187,0.0006473201544569168
13.993433774489187,0.0006473201544569168
14.105826506324666,0.00064393289315421
14.105826506324666,0.00064393289315421
14.219121956275865,0.0006405633565261543
14.219121956275865,0.0006405633565261543
14.333327374811605,0.0006372114518240469
14.333327374811605,0.0006372114518240469
14.448450070635134,0.0006338770867845149
14.448450070635134,0.0006338770867845149
14.564497411151912,0.0006305601696269779
14.564497411151912,0.0006305601696269779
14.68147682294106,0.0006272606090511178
14.68147682294106,0.0006272606090511178
14.799395792230623,0.0006239783142343687
14.799395792230623,0.0006239783142343687
14.918261865376705,0.000620713194829416
14.918261865376705,0.000620713194829416
15.038082649346354,0.0006174651609617093
15.038082649346354,0.0006174651609617093
15.158865812204425,0.0006142341232269891
15.158865812204425,0.0006142341232269891
15.280619083604261,0.0006110199926888254
15.280619083604261,0.0006110199926888254
15.403350255282408,0.0006078226808761701
15.403350255282408,0.0006078226808761701
15.527067181557213,0.000604642099780921
15.527067181557213,0.000604642099780921
15.651777779831503,0.0006014781618555005
15.651777779831503,0.0006014781618555005
15.77749003109924,0.0005983307800104448
15.77749003109924,0.0005983307800104448
15.8962621868424,0.0005945758338240124
15.8962621868424,0.0005945758338240124
16.015928453432853,0.0005908444525640958
16.015928453432853,0.0005908444525640958
16.136495561692335,0.0005871364883442174
16.136495561692335,0.0005871364883442174
16.257970293111867,0.0005834517942059935
16.257970293111867,0.0005834517942059935
16.380359480233196,0.0005797902241133056
16.380359480233196,0.0005797902241133056
16.5036700070331,0.0005761516329465148
16.5036700070331,0.0005761516329465148
16.627908809310604,0.0005725358764967103
16.627908809310604,0.0005725358764967103
16.753082875077066,0.0005689428114599935
16.753082875077066,0.0005689428114599935
16.879199244949245,0.0005653722954317978
16.879199244949245,0.0005653722954317978
17.00626501254531,0.000561824186901247
17.00626501254531,0.000561824186901247
17.134287324883843,0.0005582983452455437
17.134287324883843,0.0005582983452455437
17.263273382785815,0.0005547946307243976
17.263273382785815,0.0005547946307243976
17.39323044127962,0.0005513129044744872
17.39323044127962,0.0005513129044744872
17.52416581000914,0.0005478530285039553
17.52416581000914,0.0005478530285039553
17.656086853644897,0.0005444148656869422
17.656086853644897,0.0005444148656869422
17.789000992298277,0.0005409982797581477
17.789000992298277,0.0005409982797581477
17.92291570193889,0.000537603135307433
17.92291570193889,0.000537603135307433
18.057838514815096,0.0005342292977744524
18.057838514815096,0.0005342292977744524
18.193777019877615,0.0005308766334433218
18.193777019877615,0.0005308766334433218
18.330738863206424,0.0005275450094373171
18.330738863206424,0.0005275450094373171
18.468731748440796,0.0005242342937136107
18.468731748440796,0.0005242342937136107
18.607763437212625,0.0005209443550580351
18.607763437212625,0.0005209443550580351
18.71528549176154,0.0005169513500345448
18.71528549176154,0.0005169513500345448
18.823428845708072,0.0005129889511381059
18.823428845708072,0.0005129889511381059
18.932197089133734,0.0005090569237747203
18.932197089133734,0.0005090569237747203
19.04159383286478,0.0005051550351485381
19.04159383286478,0.0005051550351485381
19.151622708592058,0.0005012830542480735
19.151622708592058,0.0005012830542480735
19.262287368991565,0.0004974407518325303
19.262287368991565,0.0004974407518325303
19.373591487845726,0.0004936279004182275
19.373591487845726,0.0004936279004182275
19.48553876016534,0.0004898442742651321
19.48553876016534,0.0004898442742651321
19.598132902312248,0.00048608964936349417
19.598132902312248,0.00048608964936349417
19.711377652122707,0.0004823638034205837
19.711377652122707,0.0004823638034205837
19.82527676903147,0.00047866651584753096
19.82527676903147,0.00047866651584753096
19.939834034196622,0.00047499756774626423
19.939834034196622,0.00047499756774626423
20.05505325062505,0.00047135674189655285
20.05505325062505,0.00047135674189655285
20.170938243298743,0.00046774382274314484
20.170938243298743,0.00046774382274314484
20.287492859301732,0.00046415859638300537
20.287492859301732,0.00046415859638300537
20.40472096794784,0.00046060085055265253
20.40472096794784,0.00046060085055265253
20.522626460909102,0.00045707037461559057
20.522626460909102,0.00045707037461559057
20.641213252344983,0.00045356695954983924
20.641213252344983,0.00045356695954983924
20.7604852790323,0.0004500903979355571
20.7604852790323,0.0004500903979355571
20.880446500495918,0.00044664048394276373
20.880446500495918,0.00044664048394276373
21.00110089914021,0.00044321701331915186
21.00110089914021,0.00044321701331915186
21.087905199832385,0.0004393968497123929
21.087905199832385,0.0004393968497123929
21.17506829060205,0.000435609612752274
21.17506829060205,0.000435609612752274
21.2625916544439,0.00043185501863836866
21.2625916544439,0.00043185501863836866
21.35047678048236,0.00042813278601637646
21.35047678048236,0.00042813278601637646
21.438725163996875,0.0004244426359570366
21.438725163996875,0.0004244426359570366
21.527338306447362,0.0004207842919352282
21.527338306447362,0.0004207842919352282
21.616317715499765,0.0004171574798092476
21.616317715499765,0.0004171574798092476
21.705664905051655,0.0004135619278002658
21.705664905051655,0.0004135619278002658
21.79538139525808,0.00040999736647196193
21.79538139525808,0.00040999736647196193
21.88546871255735,0.0004064635287103339
21.88546871255735,0.0004064635287103339
21.975928389697035,0.0004029601497036803
21.975928389697035,0.0004029601497036803
22.066761965760048,0.00039948696692275736
22.066761965760048,0.00039948696692275736
22.15797098619083,0.00039604372010110635
22.15797098619083,0.00039604372010110635
22.249557002821632,0.0003926301512155492
22.249557002821632,0.0003926301512155492
22.34152157389895,0.0003892460044668551
22.34152157389895,0.0003892460044668551
22.433866264109973,0.0003858910262605698
22.433866264109973,0.0003858910262605698
22.48587644983331,0.00038215857231884375
22.48587644983331,0.00038215857231884375
22.538007214835638,0.00037846221979300697
22.538007214835638,0.00037846221979300697
22.59025883866531,0.0003748016194993195
22.59025883866531,0.0003748016194993195
22.6426316015188,0.00037117642563145036
22.6426316015188,0.00037117642563145036
22.69512578424218,0.0003675862957278117
22.69512578424218,0.0003675862957278117
22.74774166833263,0.0003640308906392066
22.74774166833263,0.0003640308906392066
22.800479535939928,0.0003605098744967921
22.800479535939928,0.0003605098744967921
22.853339669868,0.0003570229146803487
22.853339669868,0.0003570229146803487
22.906322353576417,0.00035356968178685975
22.906322353576417,0.00035356968178685975
22.959427871181923,0.00035014984959939345
22.959427871181923,0.00035014984959939345
23.012656507459926,0.0003467630950562869
23.012656507459926,0.0003467630950562869
23.066008547846078,0.0003434090982206258
23.066008547846078,0.0003434090982206258
23.119484278437763,0.0003400875422500221
23.119484278437763,0.0003400875422500221
23.17308398599567,0.0003367981133666824
23.17308398599567,0.0003367981133666824
23.22680795794527,0.00033354050082776723
23.22680795794527,0.00033354050082776723
23.28065648237842,0.0003303143968960335
23.28065648237842,0.0003303143968960335
23.33462984805488,0.00032711949681076674
23.33462984805488,0.00032711949681076674
23.388728344403876,0.0003239554987589897
23.388728344403876,0.0003239554987589897
23.442952261525605,0.0003208221038469493
23.442952261525605,0.0003208221038469493
23.505930122525164,0.0003177661164424357
23.505930122525164,0.0003177661164424357
23.569077169168747,0.0003147392388121695
23.569077169168747,0.0003147392388121695
23.632393855961823,0.00031174119367131833
23.632393855961823,0.00031174119367131833
23.69588063863084,0.0003087717063763218
23.69588063863084,0.0003087717063763218
23.75953797412655,0.00030583050489973546
23.75953797412655,0.00030583050489973546
23.823366320627265,0.0003029173198053085
23.823366320627265,0.0003029173198053085
23.887366137542163,0.00030003188422330306
23.887366137542163,0.00030003188422330306
23.951537885514565,0.00029717393382604397
23.951537885514565,0.00029717393382604397
24.01588202642532,0.0002943432068037083
24.01588202642532,0.0002943432068037083
24.08039902339606,0.0002915394438403391
24.08039902339606,0.0002915394438403391
24.145089340792573,0.00028876238809009123
24.145089340792573,0.00028876238809009123
24.209953444228137,0.00028601178515370016
24.209953444228137,0.00028601178515370016
24.27499180056685,0.0002832873830551804
24.27499180056685,0.0002832873830551804
24.340204877927015,0.0002805889322187404
24.340204877927015,0.0002805889322187404
24.405593145684513,0.00027791618544592057
24.405593145684513,0.00027791618544592057
24.471157074476174,0.0002752688978929459
24.471157074476174,0.0002752688978929459
24.53689713620313,0.00027264682704829956
24.53689713620313,0.00027264682704829956
24.602813804034273,0.0002700497327105052
24.602813804034273,0.0002700497327105052
24.66890755240962,0.00026747737696612326
24.66890755240962,0.00026747737696612326
24.73517885704374,0.0002649295241679546
24.73517885704374,0.0002649295241679546
24.801628194929183,0.0002624059409134564
24.801628194929183,0.0002624059409134564
24.868256044339876,0.0002599063960233587
24.868256044339876,0.0002599063960233587
24.935062884834633,0.00025743066052048743
24.935062884834633,0.00025743066052048743
25.00204919726055,0.0002549785076087868
25.00204919726055,0.0002549785076087868
25.069215463756503,0.0002525497126525457
25.069215463756503,0.0002525497126525457
25.136562167756562,0.0002501440531558177
25.136562167756562,0.0002501440531558177
25.204089793993546,0.0002477613087420391
25.204089793993546,0.0002477613087420391
25.271798828502465,0.0002454012611338398
25.271798828502465,0.0002454012611338398
25.339689758624026,0.00024306369413304945
25.339689758624026,0.00024306369413304945
25.407763073008148,0.0002407483936008907
25.407763073008148,0.0002407483936008907
25.476019261617456,0.00023845514743836308
25.476019261617456,0.00023845514743836308
25.544458815730845,0.00023618374556681155
25.544458815730845,0.00023618374556681155
25.61308222794699,0.00023393397990868428
25.61308222794699,0.00023393397990868428
25.6818899921879,0.00023170564436846938
25.6818899921879,0.00023170564436846938
25.75088260370248,0.00022949853481381597
25.75088260370248,0.00022949853481381597
25.820060559070054,0.00022731244905683235
25.820060559070054,0.00022731244905683235
25.889424356204003,0.00022514718683556658
25.889424356204003,0.00022514718683556658
25.958974494355314,0.00022300254979565928
25.958974494355314,0.00022300254979565928
26.02871147411618,0.0002208783414721734
26.02871147411618,0.0002208783414721734
26.098635797423565,0.00021877436727159682
26.098635797423565,0.00021877436727159682
26.168747967562897,0.00021669043445401463
26.168747967562897,0.00021669043445401463
26.19541381015235,0.00021457040973985885
26.19541381015235,0.00021457040973985885
26.222106825121696,0.0002124711266186582
26.222106825121696,0.0002124711266186582
26.24882704015948,0.00021039238216179727
26.24882704015948,0.00021039238216179727
26.275574482982435,0.00020833397542604552
26.275574482982435,0.00020833397542604552
26.30234918133557,0.00020629570743413197
26.30234918133557,0.00020629570743413197
26.32915116299215,0.00020427738115550974
26.32915116299215,0.00020427738115550974
26.355980455753766,0.00020227880148731252
26.355980455753766,0.00020227880148731252
26.382837087450284,0.00020029977523549188
26.382837087450284,0.00020029977523549188
26.409721085939978,0.00019834011109614474
26.409721085939978,0.00019834011109614474
26.436632479109495,0.0001963996196370195
26.436632479109495,0.0001963996196370195
26.463571294873898,0.00019447811327920363
26.463571294873898,0.00019447811327920363
26.490537561176698,0.00019257540627899317
26.490537561176698,0.00019257540627899317
26.517531305989863,0.00019069131470993676
26.517531305989863,0.00019069131470993676
26.54455255731388,0.00018882565644505516
26.54455255731388,0.00018882565644505516
26.571601343177775,0.00018697825113923817
26.571601343177775,0.00018697825113923817
26.598677691639136,0.00018514892021180893
26.598677691639136,0.00018514892021180893
26.625781630784108,0.00018333748682926345
26.625781630784108,0.00018333748682926345
26.65291318872749,0.0001815437758881759
26.65291318872749,0.0001815437758881759
26.68007239361272,0.00017976761399827134
26.68007239361272,0.00017976761399827134
26.707259273611914,0.00017800882946566646
26.707259273611914,0.00017800882946566646
26.73447385692591,0.00017626725227627203
26.73447385692591,0.00017626725227627203
26.761716171784244,0.00017454271407935714
26.761716171784244,0.00017454271407935714
26.788986246445248,0.00017283504817127793
26.788986246445248,0.00017283504817127793
26.816284109196044,0.00017114408947936036
26.816284109196044,0.00017114408947936036
26.843609788352595,0.00016946967454594563
26.843609788352595,0.00016946967454594563
26.87096331225967,0.00016781164151258844
26.87096331225967,0.00016781164151258844
26.898344709290964,0.00016616983010441004
26.898344709290964,0.00016616983010441004
26.925754007849072,0.00016454408161460684
26.925754007849072,0.00016454408161460684
26.953191236365534,0.00016293423888910806
26.953191236365534,0.00016293423888910806
26.980656423300864,0.00016134014631138344
26.980656423300864,0.00016134014631138344
27.008149597144556,0.00015976164978740223
27.008149597144556,0.00015976164978740223
27.035670786415153,0.0001581985967307367
27.035670786415153,0.0001581985967307367
27.063220019660264,0.0001566508360478114
27.063220019660264,0.0001566508360478114
27.090797325456585,0.00015511821812329966
27.090797325456585,0.00015511821812329966
27.118402732409905,0.00015360059480565852
27.118402732409905,0.00015360059480565852
27.146036269155196,0.0001520978193928097
27.146036269155196,0.0001520978193928097
27.17369796435659,0.00015060974661795757
27.17369796435659,0.00015060974661795757
27.201387846707444,0.0001491362326355461
27.201387846707444,0.0001491362326355461
27.22910594493035,0.0001476771350073555
27.22910594493035,0.0001476771350073555
27.256852287777132,0.0001462323126887326
27.256852287777132,0.0001462323126887326
27.28462690402896,0.0001448016260149558
27.28462690402896,0.0001448016260149558
27.312429822496313,0.00014338493668773612
27.312429822496313,0.00014338493668773612
27.34026107201904,0.00014198210776184662
27.34026107201904,0.00014198210776184662
27.368120681466333,0.00014059300363188594
27.368120681466333,0.00014059300363188594
27.39600867973686,0.0001392174900191695
27.39600867973686,0.0001392174900191695
27.4239250957587,0.0001378554339587484
27.4239250957587,0.0001378554339587484
27.451869958489425,0.0001365067037865578
27.451869958489425,0.0001365067037865578
27.479843296916123,0.0001351711691266889
27.479843296916123,0.0001351711691266889
27.50784514005538,0.00013384870087878513
27.50784514005538,0.00013384870087878513
27.53587551695339,0.00013253917120556444
27.53587551695339,0.00013253917120556444
27.56393445668593,0.00013124245352045982
27.56393445668593,0.00013124245352045982
27.59202198835842,0.00012995842247538452
27.59202198835842,0.00012995842247538452
27.6201381411059,0.0001286869539486142
27.6201381411059,0.0001286869539486142
27.64828294409314,0.0001274279250327883
27.64828294409314,0.0001274279250327883
27.67312036860167,0.00012617349380714558
27.67312036860167,0.00012617349380714558
27.69798010544175,0.00012493141150501778
27.69798010544175,0.00012493141150501778
27.72286217465736,0.00012370155656062323
27.72286217465736,0.00012370155656062323
27.74776659631043,0.00012248380860490374
27.74776659631043,0.00012248380860490374
27.772693390480967,0.00012127804845374297
27.772693390480967,0.00012127804845374297
27.797642577266963,0.00012008415809630198
27.797642577266963,0.00012008415809630198
27.82261417678452,0.00011890202068346836
27.82261417678452,0.00011890202068346836
27.847608209167756,0.00011773152051642115
27.847608209167756,0.00011773152051642115
27.872624694568927,0.00011657254303530628
27.872624694568927,0.00011657254303530628
27.897663653158354,0.00011542497480802474
27.897663653158354,0.00011542497480802474
27.92272510512448,0.00011428870351912983
27.92272510512448,0.00011428870351912983
27.94780907067393,0.00011316361795883581
27.94780907067393,0.00011316361795883581
27.97291557003141,0.00011204960801213269
27.97291557003141,0.00011204960801213269
27.998044623439863,0.00011094656464800937
27.998044623439863,0.00011094656464800937
28.02319625116036,0.00010985437990878176
28.02319625116036,0.00010985437990878176
28.048370473472225,0.00010877294689952782
28.048370473472225,0.00010877294689952782
28.073567310672946,0.00010770215977762491
28.073567310672946,0.00010770215977762491
28.0987867830783,0.00010664191374239009
28.0987867830783,0.00010664191374239009
28.12402891102226,0.0001055921050248242
28.12402891102226,0.0001055921050248242
28.149293714857123,0.00010455263087745501
28.149293714857123,0.00010455263087745501
28.17458121495342,0.00010352338956428126
28.17458121495342,0.00010352338956428126
28.19989143169999,0.00010250428035081494
28.19989143169999,0.00010250428035081494
28.225224385504024,0.00010149520349422317
28.225224385504024,0.00010149520349422317
28.250580096790994,0.00010049606023356539
28.250580096790994,0.00010049606023356539
28.275958586004776,0.00009950675278012774
28.275958586004776,0.00009950675278012774
28.301359873607552,0.00009852718430785147
28.301359873607552,0.00009852718430785147
28.326783980079945,0.0000975572589438575
28.326783980079945,0.0000975572589438575
28.35223092592092,0.00009659688175906227
28.35223092592092,0.00009659688175906227
28.377700731647916,0.00009564595875888719
28.377700731647916,0.00009564595875888719
28.40319341779675,0.00009470439687405849
28.40319341779675,0.00009470439687405849
28.428709004921703,0.00009377210395149923
28.428709004921703,0.00009377210395149923
28.45424751359555,0.00009284898874530964
28.45424751359555,0.00009284898874530964
28.4798089644095,0.00009193496090783605
28.4798089644095,0.00009193496090783605
28.50539337797331,0.00009102993098082941
28.50539337797331,0.00009102993098082941
28.531000774915196,0.00009013381038668907
28.531000774915196,0.00009013381038668907
28.556631175881964,0.0000892465114197938
28.556631175881964,0.0000892465114197938
28.582284601538912,0.00008836794723791716
28.582284601538912,0.00008836794723791716
28.607961072569953,0.00008749803185372905
28.607961072569953,0.00008749803185372905
28.633660609677534,0.00008663668012637921
28.633660609677534,0.00008663668012637921
28.659383233582744,0.00008578380775316457
28.659383233582744,0.00008578380775316457
28.685128965025253,0.00008493933126127779
28.685128965025253,0.00008493933126127779
28.71089782476336,0.00008410316799963839
28.71089782476336,0.00008410316799963839
28.736689833574058,0.00008327523613080292
28.736689833574058,0.00008327523613080292
28.76250501225294,0.00008245545462295562
28.76250501225294,0.00008245545462295562
28.788343381614347,0.00008164374324197703
28.788343381614347,0.00008164374324197703
28.814204962491246,0.00008084002254359212
28.814204962491246,0.00008084002254359212
28.840089775735393,0.00008004421386559435
28.840089775735393,0.00008004421386559435
28.86599784221721,0.00007925623932014702
28.86599784221721,0.00007925623932014702
28.89192918282593,0.0000784760217861597
28.89192918282593,0.0000784760217861597
28.901010939373858,0.00007770348996993038
28.901010939373858,0.00007770348996993038
28.9100955506395,0.00007693856309331833
28.9100955506395,0.00007693856309331833
28.91918301752019,0.00007618116629195501
28.91918301752019,0.00007618116629195501
28.928273340913556,0.00007543122543844999
28.928273340913556,0.00007543122543844999
28.937366521717497,0.00007468866713513593
28.937366521717497,0.00007468866713513593
28.9464625608302,0.00007395341870688495
28.9464625608302,0.00007395341870688495
28.95556145915013,0.00007322540819399638
28.95556145915013,0.00007322540819399638
28.96466321757604,0.00007250456434515315
28.96466321757604,0.00007250456434515315
28.973767837006946,0.00007179081661044886
28.973767837006946,0.00007179081661044886
28.982875318342195,0.00007108409513448285
28.982875318342195,0.00007108409513448285
28.991985662481365,0.00007038433074952336
28.991985662481365,0.00007038433074952336
29.001098870324345,0.000069691454968738
29.001098870324345,0.000069691454968738
29.01021494277129,0.00006900539997949086
29.01021494277129,0.00006900539997949086
29.01933388072265,0.00006832609863670557
29.01933388072265,0.00006832609863670557
29.02845568507916,0.00006765348445629375
29.02845568507916,0.00006765348445629375
29.03758035674182,0.00006698749160864816
29.03758035674182,0.00006698749160864816
29.046707896611938,0.0000663280549121998
29.046707896611938,0.0000663280549121998
29.055838305591084,0.00006567510982703844
29.055838305591084,0.00006567510982703844
29.06497158458113,0.00006502859244859649
29.06497158458113,0.00006502859244859649
29.074107734484215,0.00006438843950139384
29.074107734484215,0.00006438843950139384
29.08324675620277,0.00006375458833284548
29.08324675620277,0.00006375458833284548
29.09238865063951,0.00006312697690712956
29.09238865063951,0.00006312697690712956
29.10153341869743,0.00006250554379911578
29.10153341869743,0.00006250554379911578
29.110681061279813,0.00006189022818835366
29.110681061279813,0.00006189022818835366
29.11983157929022,0.00006128096985312001
29.11983157929022,0.00006128096985312001
29.12898497363251,0.00006067770916452489
29.12898497363251,0.00006067770916452489
29.13814124521079,0.000060080387080675686
29.13814124521079,0.000060080387080675686
29.14730039492951,0.000059488945140898613
29.14730039492951,0.000059488945140898613
29.156462423693355,0.00005890332546001706
29.156462423693355,0.00005890332546001706
29.165627332407315,0.000058323470722686243
29.165627332407315,0.000058323470722686243
29.174795121976658,0.000057749324177784035
29.174795121976658,0.000057749324177784035
29.18396579330694,0.000057180829632856085
29.18396579330694,0.000057180829632856085
29.193139347303998,0.00005661793144861658
29.193139347303998,0.00005661793144861658
29.20231578487396,0.00005606057453350266
29.20231578487396,0.00005606057453350266
29.211495106923234,0.00005550870433828255
29.211495106923234,0.00005550870433828255
29.218332360580337,0.00005496612381012824
29.218332360580337,0.00005496612381012824
29.22517121456765,0.00005442884683991213
29.22517121456765,0.00005442884683991213
29.232011669259713,0.00005389682158698506
29.232011669259713,0.00005389682158698506
29.238853725031216,0.000053369996717424256
29.238853725031216,0.000053369996717424256
29.245697382256886,0.00005284832139908031
29.245697382256886,0.00005284832139908031
29.252542641311578,0.000052331745296672425
29.252542641311578,0.000052331745296672425
29.259389502570198,0.000051820218566931727
29.259389502570198,0.000051820218566931727
29.266237966407783,0.000051313691853791964
29.266237966407783,0.000051313691853791964
29.273088033199404,0.000050812116283627266
29.273088033199404,0.000050812116283627266
29.279939703320263,0.00005031544346053644
29.279939703320263,0.00005031544346053644
29.28679297714565,0.000049823625461673373
29.28679297714565,0.000049823625461673373
29.293647855050907,0.00004933661483262302
29.293647855050907,0.00004933661483262302
29.300504337411503,0.000048854364582822675
29.300504337411503,0.000048854364582822675
29.307362424602957,0.000048376828181027947
29.307362424602957,0.000048376828181027947
29.314222117000924,0.000047903959550823054
29.314222117000924,0.000047903959550823054
29.321083414981086,0.00004743571306617502
29.321083414981086,0.00004743571306617502
29.327946318919278,0.000046972043547031314
29.327946318919278,0.000046972043547031314
29.334810829191362,0.00004651290625496056
29.334810829191362,0.00004651290625496056
29.341676946173333,0.00004605825688883578
29.341676946173333,0.00004605825688883578
29.348544670241267,0.0000456080515805599
29.348544670241267,0.0000456080515805599
29.3554140017713,0.00004516224689083302
29.3554140017713,0.00004516224689083302
29.362284941139695,0.000044720799804961056
29.362284941139695,0.000044720799804961056
29.36915748872276,0.00004428366772870533
29.36915748872276,0.00004428366772870533
29.37603164489694,0.000043850808484172685
29.37603164489694,0.000043850808484172685
29.382907410038715,0.00004342218030574614
29.382907410038715,0.00004342218030574614
29.389784784524707,0.000042997741836054555
29.389784784524707,0.000042997741836054555
29.396663768731578,0.00004257745212198247
29.396663768731578,0.00004257745212198247
29.40354436303612,0.000042161270610718524
29.40354436303612,0.000042161270610718524
29.41042656781517,0.00004174915714584265
29.41042656781517,0.00004174915714584265
29.417310383445685,0.00004134107196345142
29.417310383445685,0.00004134107196345142
29.424195810304724,0.000040936975688321385
29.424195810304724,0.000040936975688321385
29.431082848769375,0.00004053682933010977
29.431082848769375,0.00004053682933010977
29.437971499216886,0.00004014059427959242
29.437971499216886,0.00004014059427959242
29.444861762024523,0.0000397482323049385
29.444861762024523,0.0000397482323049385
29.451753637569713,0.00003935970554802157
29.451753637569713,0.00003935970554802157
29.4586471262299,0.000038974976520766745
29.4586471262299,0.000038974976520766745
29.465542228382674,0.00003859400810153353
29.465542228382674,0.00003859400810153353
29.47243894440567,0.00003821676353153409
29.47243894440567,0.00003821676353153409
29.479337274676645,0.00003784320641128642
29.479337274676645,0.00003784320641128642
29.48623721957344,0.000037473300697102294
29.48623721957344,0.000037473300697102294
29.493138779473945,0.00003710701069760943
29.493138779473945,0.00003710701069760943
29.500041954756203,0.000036744301070307776
29.500041954756203,0.000036744301070307776
29.506946745798277,0.00003638513681815933
29.506946745798277,0.00003638513681815933
29.513853152978385,0.0000360294832862114
29.513853152978385,0.0000360294832862114
29.52076117667477,0.0000356773061582528
29.52076117667477,0.0000356773061582528
29.527670817265825,0.000035328571453502775
29.527670817265825,0.000035328571453502775
29.534582075129972,0.000034983245523332236
29.534582075129972,0.000034983245523332236
29.534582075129972,0.000034638862958918106
29.534582075129972,0.000034638862958918106
29.534582075129972,0.000034297870570255195
29.534582075129972,0.000034297870570255195
29.534582075129972,0.00003396023498372704
29.534582075129972,0.00003396023498372704
29.534582075129972,0.00003362592315425421
29.534582075129972,0.00003362592315425421
29.534582075129972,0.0000332949023620601
29.534582075129972,0.0000332949023620601
29.534582075129972,0.00003296714020946859
29.534582075129972,0.00003296714020946859
29.534582075129972,0.00003264260461773326
29.534582075129972,0.00003264260461773326
29.534582075129972,0.00003232126382389765
29.534582075129972,0.00003232126382389765
29.534582075129972,0.000032003086377686835
29.534582075129972,0.000032003086377686835
29.534582075129972,0.000031688041138428966
29.534582075129972,0.000031688041138428966
29.534582075129972,0.0000313760972720077
29.534582075129972,0.0000313760972720077
29.534582075129972,0.00003106722424784433
29.534582075129972,0.00003106722424784433
29.534582075129972,0.00003076139183590971
29.534582075129972,0.00003076139183590971
29.534582075129972,0.00003045857010376559
29.534582075129972,0.00003045857010376559
29.534582075129972,0.000030158729413635037
29.534582075129972,0.000030158729413635037
29.534582075129972,0.00002986184041950176
29.534582075129972,0.00002986184041950176
29.534582075129972,0.00002956787406423793
29.534582075129972,0.00002956787406423793
29.534582075129972,0.000029276801576760312
29.534582075129972,0.000029276801576760312
29.534582075129972,0.000028988594469214388
29.534582075129972,0.000028988594469214388
29.534582075129972,0.000028703224534186172
29.534582075129972,0.000028703224534186172
29.534582075129972,0.000028420663841941462
29.534582075129972,0.000028420663841941462
29.534582075129972,0.000028140884737692486
29.534582075129972,0.000028140884737692486
29.534582075129972,0.000027863859838890986
29.534582075129972,0.000027863859838890986
29.534582075129972,0.000027589562032548424
29.534582075129972,0.000027589562032548424
29.534582075129972,0.000027317964472582327
29.534582075129972,0.000027317964472582327
29.534582075129972,0.000027049040577188817
29.534582075129972,0.000027049040577188817
29.534582075129972,0.000026782764026240978
29.534582075129972,0.000026782764026240978
29.534582075129972,0.000026519108758712876
29.534582075129972,0.000026519108758712876
29.554478875849885,0.000026258051824586206
29.554478875849885,0.000026258051824586206
29.574389080608423,0.000025999564762753348
29.574389080608423,0.000025999564762753348
29.594312698435576,0.000025743622275117394
29.594312698435576,0.000025743622275117394
29.61424973836747,0.000025490199312618735
29.61424973836747,0.000025490199312618735
29.63420020944626,0.000025239271072783235
29.63420020944626,0.000025239271072783235
29.654164120720218,0.00002499081299729501
29.654164120720218,0.00002499081299729501
29.674141481243712,0.000024744800769592808
29.674141481243712,0.000024744800769592808
29.694132300077204,0.00002450121031249033
29.694132300077204,0.00002450121031249033
29.71413658628725,0.00002426001778581954
29.71413658628725,0.00002426001778581954
29.734154348946554,0.000024021199584097593
29.734154348946554,0.000024021199584097593
29.754185597133887,0.0000237847323342165
29.754185597133887,0.0000237847323342165
29.77423033993416,0.000023550592893155757
29.77423033993416,0.000023550592893155757
29.794288586438395,0.000023318758345717107
29.794288586438395,0.000023318758345717107
29.814360345743726,0.000023089206002281977
29.814360345743726,0.000023089206002281977
29.83444562695346,0.000022861913396590788
29.83444562695346,0.000022861913396590788
29.854544439176994,0.000022636858283544332
29.854544439176994,0.000022636858283544332
29.874656791529873,0.000022414018637026407
29.874656791529873,0.000022414018637026407
29.89478269313379,0.00002219337264774829
29.89478269313379,0.00002219337264774829
29.914922153116578,0.000021974898721114184
29.914922153116578,0.000021974898721114184
29.935075180612202,0.000021758575475107912
29.935075180612202,0.000021758575475107912
29.95524178476083,0.000021544381738200023
29.95524178476083,0.000021544381738200023
29.975421974708738,0.000021332296547275903
29.975421974708738,0.000021332296547275903
29.995615759608384,0.000021122299145584035
29.995615759608384,0.000021122299145584035
30.015823148618388,0.000020914368980704687
30.015823148618388,0.000020914368980704687
30.036044150903525,0.000020708485702538226
30.036044150903525,0.000020708485702538226
30.056278775634794,0.000020504629161313613
30.056278775634794,0.000020504629161313613
30.07652703198932,0.000020302779405616256
30.07652703198932,0.000020302779405616256
30.096788929150424,0.000020102916680435536
30.096788929150424,0.000020102916680435536
30.11706447630763,0.00001990502142523115
30.11706447630763,0.00001990502142523115
30.13735368265662,0.000019709074272018874
30.13735368265662,0.000019709074272018874
30.15765655739932,0.000019515056043474954
30.15765655739932,0.000019515056043474954
30.177973109743814,0.000019322947751059364
30.177973109743814,0.000019322947751059364
30.198303348904403,0.000019132730593157176
30.198303348904403,0.000019132730593157176
30.2186472841016,0.000018944385953238604
30.2186472841016,0.000018944385953238604
30.239004924562117,0.00001875789539803694
30.239004924562117,0.00001875789539803694
30.25937627951888,0.000018573240675744606
30.25937627951888,0.000018573240675744606
30.27976135821107,0.000018390403714226676
30.27976135821107,0.000018390403714226676
30.30016016988405,0.000018209366619252268
30.30016016988405,0.000018209366619252268
30.32057272378944,0.000018030111672743195
30.32057272378944,0.000018030111672743195
30.340999029185067,0.00001785262133104001
30.340999029185067,0.00001785262133104001
30.361439095335005,0.000017676878223184833
30.361439095335005,0.000017676878223184833
30.381892931509594,0.000017502865149221366
30.381892931509594,0.000017502865149221366
30.402360546985385,0.00001733056507851149
30.402360546985385,0.00001733056507851149
30.422841951045193,0.0000171599611480686
30.422841951045193,0.0000171599611480686
30.44333715297809,0.000016991036660907027
30.44333715297809,0.000016991036660907027
30.46384616207939,0.000016823775084408048
30.46384616207939,0.000016823775084408048
30.48436898765067,0.000016658160048701796
30.48436898765067,0.000016658160048701796
30.504905638999812,0.000016494175345065123
30.504905638999812,0.000016494175345065123
30.525456125440925,0.000016331804924335365
30.525456125440925,0.000016331804924335365
30.53505075522869,0.000016494175569196007
30.53505075522869,0.000016494175569196007
30.544648400759115,0.000016658160501420147
30.544648400759115,0.000016658160501420147
30.554249062980123,0.000016823775770236967
30.554249062980123,0.000016823775770236967
30.563852742839888,0.00001699103758443693
30.563852742839888,0.00001699103758443693
30.573459441286918,0.000017159962313958137
30.573459441286918,0.000017159962313958137
30.583069159269996,0.000017330566491488476
30.583069159269996,0.000017330566491488476
30.592681897738196,0.000017502866814083577
30.592681897738196,0.000017502866814083577
30.602297657640925,0.000017676880144801115
30.602297657640925,0.000017676880144801115
30.611916439927843,0.000017852623514351096
30.611916439927843,0.000017852623514351096
30.621538245548965,0.00001803011412276267
30.621538245548965,0.00001803011412276267
30.631163075454538,0.00001820936934106752
30.631163075454538,0.00001820936934106752
30.640790930595173,0.000018390406712999947
30.640790930595173,0.000018390406712999947
30.650421811921735,0.000018573243956713893
30.650421811921735,0.000018573243956713893
30.660055720385387,0.000018757898966517004
30.660055720385387,0.000018757898966517004
30.66969265693763,0.000018944389814621968
30.66969265693763,0.000018944389814621968
30.67933262253022,0.00001913273475291523
30.67933262253022,0.00001913273475291523
30.688975618115254,0.000019322952214743316
30.688975618115254,0.000019322952214743316
30.698621644645094,0.00001951506081671693
30.698621644645094,0.00001951506081671693
30.7082707030724,0.000019709079360532835
30.7082707030724,0.000019709079360532835
30.717922794350173,0.000019905026834814186
30.717922794350173,0.000019905026834814186
30.727577919431653,0.000020102922416968818
30.727577919431653,0.000020102922416968818
30.737236079270446,0.000020302785475066147
30.737236079270446,0.000020302785475066147
30.746897274820395,0.00002050463556973276
30.746897274820395,0.00002050463556973276
30.756561507035695,0.000020708492456066803
30.756561507035695,0.000020708492456066803
30.766228776870808,0.000020914376085571407
30.766228776870808,0.000020914376085571407
30.77589908528049,0.000021122306608107354
30.77589908528049,0.000021122306608107354
30.78557243321984,0.00002133230437386515
30.78557243321984,0.00002133230437386515
30.795248821644204,0.00002154438993535669
30.795248821644204,0.00002154438993535669
30.80492825150928,0.00002175858404942675
30.80492825150928,0.00002175858404942675
30.81461072377103,0.000021974907679284477
30.81461072377103,0.000021974907679284477
30.82429623938571,0.000022193381996554938
30.82429623938571,0.000022193381996554938
30.83398479930992,0.000022414028383351397
30.83398479930992,0.000022414028383351397
30.84367640450051,0.00002263686843436784
30.84367640450051,0.00002263686843436784
30.853371055914682,0.000022861923958992497
30.853371055914682,0.000022861923958992497
30.863068754509897,0.00002308921698344231
30.863068754509897,0.00002308921698344231
30.872769501243916,0.000023318769752918672
30.872769501243916,0.000023318769752918672
30.882473297074846,0.000023550604733784533
30.882473297074846,0.000023550604733784533
30.892180142961042,0.00002378474461576321
30.892180142961042,0.00002378474461576321
30.901890039861208,0.000024021212314159034
30.901890039861208,0.000024021212314159034
30.9116029887343,0.000024260030972100062
30.9116029887343,0.000024260030972100062
30.921318990539625,0.000024501223962803098
30.921318990539625,0.000024501223962803098
30.931038046236754,0.000024744814891861294
30.931038046236754,0.000024744814891861294
30.940760156785565,0.000024990827599554242
30.940760156785565,0.000024990827599554242
30.95048532314627,0.00002523928616318149
30.95048532314627,0.00002523928616318149
30.96021354627933,0.000025490214899418818
30.96021354627933,0.000025490214899418818
30.969944827145564,0.000025743638366698167
30.969944827145564,0.000025743638366698167
30.979679166706056,0.00002599958136761116
30.979679166706056,0.00002599958136761116
30.98941656592218,0.00002625806895133654
30.98941656592218,0.00002625806895133654
30.999157025755668,0.000026519126416091758
30.999157025755668,0.000026519126416091758
31.00890054716849,0.000026782779311608872
31.00890054716849,0.000026782779311608872
31.01864713112298,0.00002704905344163515
31.01864713112298,0.00002704905344163515
31.02839677858171,0.000027317974866458436
31.02839677858171,0.000027317974866458436
31.03814949050761,0.000027589569905457776
31.03814949050761,0.000027589569905457776
31.04790526786389,0.000027863865139679067
31.04790526786389,0.000027863865139679067
31.05766411161404,0.000028140887414436844
31.05766411161404,0.000028140887414436844
31.067426022721904,0.000028420663841941462
31.067426022721904,0.000028420663841941462
31.077191002151576,0.00002870322180395259
31.077191002151576,0.00002870322180395259
31.086959050867506,0.000028988588954459106
31.086959050867506,0.000028988588954459106
31.096730169834398,0.000029276793222385554
31.096730169834398,0.000029276793222385554
31.106504360017272,0.00002956786281432558
31.106504360017272,0.00002956786281432558
31.11628162238149,0.000029861826217302515
31.11628162238149,0.000029861826217302515
31.12606195789265,0.000030158712201557388
31.12606195789265,0.000030158712201557388
31.135845367516726,0.000030458549823364682
31.135845367516726,0.000030458549823364682
31.14563185221993,0.00003076136842787609
31.14563185221993,0.00003076136842787609
31.15542141296883,0.00003106719765199255
31.15542141296883,0.00003106719765199255
31.16521405073027,0.000031376067427264644
31.16521405073027,0.000031376067427264644
31.175009766471383,0.00003168800798282227
31.175009766471383,0.00003168800798282227
31.18480856115966,0.000032003049848333006
31.18480856115966,0.000032003049848333006
31.19461043576283,0.00003232122385699008
31.19461043576283,0.00003232122385699008
31.204415391248986,0.000032642561148530024
31.204415391248986,0.000032642561148530024
31.204415391248986,0.00003296709735336101
31.204415391248986,0.00003296709735336101
31.204415391248986,0.00003329486013553581
31.204415391248986,0.00003329486013553581
31.204415391248986,0.000033625881574068124
31.204415391248986,0.000033625881574068124
31.204415391248986,0.00003396019406690497
31.204415391248986,0.00003396019406690497
31.204415391248986,0.0000342978303340976
31.204415391248986,0.0000342978303340976
31.204415391248986,0.00003463882342100391
31.204415391248986,0.00003463882342100391
31.204415391248986,0.00003498320670152261
31.204415391248986,0.00003498320670152261
31.204415391248986,0.0000353310138813597
31.204415391248986,0.0000353310138813597
31.204415391248986,0.00003568227900132728
31.204415391248986,0.00003568227900132728
31.204415391248986,0.00003603703644067522
31.204415391248986,0.00003603703644067522
31.204415391248986,0.00003639532092045604
31.204415391248986,0.00003639532092045604
31.204415391248986,0.00003675716750692288
31.204415391248986,0.00003675716750692288
31.204415391248986,0.00003712261161496189
31.204415391248986,0.00003712261161496189
31.204415391248986,0.00003749168901155817
31.204415391248986,0.00003749168901155817
31.204415391248986,0.000037864435819296405
31.204415391248986,0.000037864435819296405
31.204415391248986,0.00003824088851989628
31.204415391248986,0.00003824088851989628
31.204415391248986,0.00003862108395778308
31.204415391248986,0.00003862108395778308
31.204415391248986,0.0000390050593436937
31.204415391248986,0.0000390050593436937
31.204415391248986,0.00003939285225831859
31.204415391248986,0.00003939285225831859
31.204415391248986,0.00003978450065597988
31.204415391248986,0.00003978450065597988
31.204415391248986,0.000040180042868346044
31.204415391248986,0.000040180042868346044
31.204415391248986,0.00004057951760818357
31.204415391248986,0.00004057951760818357
31.204415391248986,0.0000409829639731458
31.204415391248986,0.0000409829639731458
31.204415391248986,0.00004139042144959963
31.204415391248986,0.00004139042144959963
31.204415391248986,0.00004180192991649004
31.204415391248986,0.00004180192991649004
31.204415391248986,0.00004221752964924322
31.204415391248986,0.00004221752964924322
31.204415391248986,0.00004263726132370841
31.204415391248986,0.00004263726132370841
31.204415391248986,0.00004306116602013896
31.204415391248986,0.00004306116602013896
31.204415391248986,0.00004348928522721295
31.204415391248986,0.00004348928522721295
31.204415391248986,0.000043921660846093805
31.204415391248986,0.000043921660846093805
31.204415391248986,0.00004435833519453129
31.204415391248986,0.00004435833519453129
31.204415391248986,0.00004479935101100322
31.204415391248986,0.00004479935101100322
31.204415391248986,0.00004524475145889851
31.204415391248986,0.00004524475145889851
31.204415391248986,0.00004569458013074135
31.204415391248986,0.00004569458013074135
31.204415391248986,0.00004614888105245821
31.204415391248986,0.00004614888105245821
31.204415391248986,0.00004660769868768644
31.204415391248986,0.00004660769868768644
31.204415391248986,0.000047071077942126125
31.204415391248986,0.000047071077942126125
31.204415391248986,0.00004753906416793516
31.204415391248986,0.00004753906416793516
31.204415391248986,0.00004801170316816793
31.204415391248986,0.00004801170316816793
31.204415391248986,0.00004848904120125822
31.204415391248986,0.00004848904120125822
31.204415391248986,0.00004897112498554665
31.204415391248986,0.00004897112498554665
31.204415391248986,0.00004945800170385307
31.204415391248986,0.00004945800170385307
31.219024535433828,0.0000499462091494687
31.219024535433828,0.0000499462091494687
31.23364051926271,0.0000504392357649203
31.23364051926271,0.0000504392357649203
31.24826334593779,0.000050937129120965
31.24826334593779,0.000050937129120965
31.2628930186627,0.00005143993725793836
31.2628930186627,0.00005143993725793836
31.277529540642632,0.00005194770869038939
31.277529540642632,0.00005194770869038939
31.29217291508422,0.000052460492411761284
31.29217291508422,0.000052460492411761284
31.30682314519562,0.000052978337899119275
31.30682314519562,0.000052978337899119275
31.321480234186485,0.00005350129511792417
31.321480234186485,0.00005350129511792417
31.336144185267976,0.0000540294145268532
31.336144185267976,0.0000540294145268532
31.350815001652762,0.00005456274708266909
31.350815001652762,0.00005456274708266909
31.365492686554987,0.000055101344245136553
31.365492686554987,0.000055101344245136553
31.38017724319036,0.00005564525798198714
31.38017724319036,0.00005564525798198714
31.39486867477604,0.000056194540773934066
31.39486867477604,0.000056194540773934066
31.409566984530706,0.00005674924561973565
31.409566984530706,0.00005674924561973565
31.424272175674556,0.0000573094260413087
31.424272175674556,0.0000573094260413087
31.438984251429286,0.00005787513608889328
31.438984251429286,0.00005787513608889328
31.453703215018088,0.000058446430346267596
31.453703215018088,0.000058446430346267596
31.468429069665707,0.00005902336393601431
31.468429069665707,0.00005902336393601431
31.483161818598347,0.000059605992524839764
31.483161818598347,0.000059605992524839764
31.497901465043753,0.00006019437232894483
31.497901465043753,0.00006019437232894483
31.512648012231168,0.00006078856011944872
31.512648012231168,0.00006078856011944872
31.52740146339135,0.00006138861322786729
31.52740146339135,0.00006138861322786729
31.542161821756572,0.0000619945895516445
31.542161821756572,0.0000619945895516445
31.5569290905606,0.00006260654755973847
31.5569290905606,0.00006260654755973847
31.571703273038768,0.00006322454629826367
31.571703273038768,0.00006322454629826367
31.58648437242787,0.00006384864539618734
31.58648437242787,0.00006384864539618734
31.60127239196623,0.00006447890507108362
31.60127239196623,0.00006447890507108362
31.616067334893703,0.0000651153861349435
31.616067334893703,0.0000651153861349435
31.630869204451646,0.00006575815000004199
31.630869204451646,0.00006575815000004199
31.645678003882935,0.00006640725868486433
31.645678003882935,0.00006640725868486433
31.660493736431956,0.0000670627748200897
31.660493736431956,0.0000670627748200897
31.675316405344656,0.00006772476165463383
31.675316405344656,0.00006772476165463383
31.69014601386845,0.00006839328306175247
31.69014601386845,0.00006839328306175247
31.7049825652523,0.00006906840354520398
31.7049825652523,0.00006906840354520398
31.71982606274668,0.00006975018824547273
31.71982606274668,0.00006975018824547273
31.73467650960359,0.0000704387029460551
31.73467650960359,0.0000704387029460551
31.749533909076543,0.00007113401407980636
31.749533909076543,0.00007113401407980636
31.764398264420603,0.00007183618873535018
31.764398264420603,0.00007183618873535018
31.77926957889233,0.00007254529466355258
31.77926957889233,0.00007254529466355258
31.794147855749813,0.00007326140028405875
31.794147855749813,0.00007326140028405875
31.809033098252677,0.0000739845746918941
31.809033098252677,0.0000739845746918941
31.823925309662062,0.00007471488766413201
31.823925309662062,0.00007471488766413201
31.83882449324064,0.00007545240966662587
31.83882449324064,0.00007545240966662587
31.853730652252597,0.00007619721186080787
31.853730652252597,0.00007619721186080787
31.86864378996369,0.00007694936611055589
31.86864378996369,0.00007694936611055589
31.88356390964116,0.00007770894498912704
31.88356390964116,0.00007770894498912704
31.89849101455379,0.0000784760217861597
31.89849101455379,0.0000784760217861597
31.89849101455379,0.00007924970958276243
31.89849101455379,0.00007924970958276243
31.89849101455379,0.00008003102509536029
31.89849101455379,0.00008003102509536029
31.89849101455379,0.00008082004352489551
31.89849101455379,0.00008082004352489551
31.89849101455379,0.00008161684081370958
31.89849101455379,0.00008161684081370958
31.89849101455379,0.00008242149365285198
31.89849101455379,0.00008242149365285198
31.89849101455379,0.00008323407948946263
31.89849101455379,0.00008323407948946263
31.89849101455379,0.00008405467653422538
31.89849101455379,0.00008405467653422538
31.89849101455379,0.00008488336376889595
31.89849101455379,0.00008488336376889595
31.89849101455379,0.00008572022095390387
31.89849101455379,0.00008572022095390387
31.89849101455379,0.00008656532863602929
31.89849101455379,0.00008656532863602929
31.89849101455379,0.0000874187681561556
31.89849101455379,0.0000874187681561556
31.89849101455379,0.00008828062165709835
31.89849101455379,0.00008828062165709835
31.89849101455379,0.00008915097209151167
31.89849101455379,0.00008915097209151167
31.89849101455379,0.00009002990322987166
31.89849101455379,0.00009002990322987166
31.89849101455379,0.00009091749966854029
31.89849101455379,0.00009091749966854029
31.89849101455379,0.00009181384683790699
31.89849101455379,0.00009181384683790699
31.89849101455379,0.00009271903101061144
31.89849101455379,0.00009271903101061144
31.89849101455379,0.00009363313930984727
31.89849101455379,0.00009363313930984727
31.89849101455379,0.00009455625971774757
31.89849101455379,0.00009455625971774757
31.89849101455379,0.00009548848108385326
31.89849101455379,0.00009548848108385326
31.89849101455379,0.00009642989313366411
31.89849101455379,0.00009642989313366411
31.89849101455379,0.00009738058647727571
31.89849101455379,0.00009738058647727571
31.89849101455379,0.00009834065261810006
31.89849101455379,0.00009834065261810006
31.89849101455379,0.00009931018396167273
31.89849101455379,0.00009931018396167273
31.89849101455379,0.00010028927382454687
31.89849101455379,0.00010028927382454687
31.89849101455379,0.00010127801644327486
31.89849101455379,0.00010127801644327486
31.89849101455379,0.00010227650698347847
31.89849101455379,0.00010227650698347847
31.89849101455379,0.0001032848415490085
31.89849101455379,0.0001032848415490085
31.89849101455379,0.00010430311719119481
31.89849101455379,0.00010430311719119481
31.89849101455379,0.00010533143191818682
31.89849101455379,0.00010533143191818682
31.89849101455379,0.00010636988470438763
31.89849101455379,0.00010636988470438763
31.89849101455379,0.00010741857549997966
31.89849101455379,0.00010741857549997966
31.89849101455379,0.00010847760524054483
31.89849101455379,0.00010847760524054483
31.89849101455379,0.00010954707585677961
31.89849101455379,0.00010954707585677961
31.89849101455379,0.00011062709028430572
31.89849101455379,0.00011062709028430572
31.89849101455379,0.00011171775247357774
31.89849101455379,0.00011171775247357774
31.89849101455379,0.00011281916739988758
31.89849101455379,0.00011281916739988758
31.89849101455379,0.00011393144107346934
31.89849101455379,0.00011393144107346934
31.89849101455379,0.00011505468054970197
31.89849101455379,0.00011505468054970197
31.89849101455379,0.00011618899393941346
31.89849101455379,0.00011618899393941346
31.931924975117678,0.0001173441214576213
31.931924975117678,0.0001173441214576213
31.965393979023236,0.00011851073302038517
31.965393979023236,0.00011851073302038517
31.998898063000627,0.00011968894279975754
31.998898063000627,0.00011968894279975754
32.03243726381856,0.00012087886610286573
32.03243726381856,0.00012087886610286573
32.066011618284264,0.00012208061938319786
32.066011618284264,0.00012208061938319786
32.099621163243555,0.00012329432025199894
32.099621163243555,0.00012329432025199894
32.13326593558084,0.0001245200874897812
32.13326593558084,0.0001245200874897812
32.16694597221922,0.00012575804105794896
32.16694597221922,0.00012575804105794896
32.200661310120466,0.00012700830211053796
32.200661310120466,0.00012700830211053796
32.234411986285146,0.00012827099300607354
32.234411986285146,0.00012827099300607354
32.268198037752526,0.00012954623731954463
32.268198037752526,0.00012954623731954463
32.30201950160076,0.00013083415985449761
32.30201950160076,0.00013083415985449761
32.33587641494684,0.00013213488665525072
32.33587641494684,0.00013213488665525072
32.369768814946674,0.00013344854501922941
32.369768814946674,0.00013344854501922941
32.403696738795084,0.00013477526350942387
32.403696738795084,0.00013477526350942387
32.43766022372591,0.00013611517196697215
32.43766022372591,0.00013611517196697215
32.47165930701201,0.00013746840152386658
32.47165930701201,0.00013746840152386658
32.505694025965326,0.0001388350846157872
32.505694025965326,0.0001388350846157872
32.539764417936844,0.0001402153549950631
32.539764417936844,0.0001402153549950631
32.57387052031677,0.00014160934774376126
32.57387052031677,0.00014160934774376126
32.608012370534475,0.0001430171992869081
32.608012370534475,0.0001430171992869081
32.64219000605854,0.0001444390474058398
32.64219000605854,0.0001444390474058398
32.676403464396856,0.0001458750312516868
32.676403464396856,0.0001458750312516868
32.71065278309659,0.00014732529135899223
32.71065278309659,0.00014732529135899223
32.744937999744316,0.00014878996965946446
32.744937999744316,0.00014878996965946446
32.77925915196593,0.0001502692094958691
32.77925915196593,0.0001502692094958691
32.813616277426824,0.00015176315563605625
32.813616277426824,0.00015176315563605625
32.848009413831846,0.00015327195428712885
32.848009413831846,0.00015327195428712885
32.88243859892539,0.0001547957531097515
32.88243859892539,0.0001547957531097515
32.916903870491346,0.00015633470123260055
32.916903870491346,0.00015633470123260055
32.95140526635327,0.00015788894926696036
32.95140526635327,0.00015788894926696036
32.98594282437435,0.000159458649321462
32.98594282437435,0.000159458649321462
33.02051658245745,0.0001610439550169698
33.02051658245745,0.0001610439550169698
33.05512657854514,0.00016264502150161578
33.05512657854514,0.00016264502150161578
33.0897728506198,0.00016426200546598355
33.0897728506198,0.00016426200546598355
33.1244554367036,0.00016589506515844206
33.1244554367036,0.00016589506515844206
33.15917437485857,0.0001675443604006345
33.15917437485857,0.0001675443604006345
33.19392970318662,0.00016921005260311817
33.19392970318662,0.00016921005260311817
33.2287214598296,0.00017089230478116164
33.2287214598296,0.00017089230478116164
33.263549682969355,0.00017259128157069863
33.263549682969355,0.00017259128157069863
33.298414410827746,0.00017430714924443914
33.298414410827746,0.00017430714924443914
33.333315681666654,0.0001760400757281438
33.333315681666654,0.0001760400757281438
33.3666652369932,0.00017777255406160693
33.3666652369932,0.00017777255406160693
33.400048158122615,0.00017952208238305399
33.400048158122615,0.00017952208238305399
33.43346447843699,0.0001812888284879984
33.43346447843699,0.0001812888284879984
33.466914231351744,0.00018307296182329267
33.466914231351744,0.00018307296182329267
33.5003974503158,0.00018487465350338245
33.5003974503158,0.00018487465350338245
33.53391416881149,0.00018669407632671575
33.53391416881149,0.00018669407632671575
33.56746442035467,0.0001885314047923168
33.56746442035467,0.0001885314047923168
33.601048238494734,0.00019038681511652307
33.601048238494734,0.00019038681511652307
33.63466565681461,0.00019226048524988368
33.63466565681461,0.00019226048524988368
33.66831670893088,0.00019415259489422913
33.66831670893088,0.00019415259489422913
33.70200142849371,0.000196063325519904
33.70200142849371,0.000196063325519904
33.73571984918693,0.0001979928603831726
33.73571984918693,0.0001979928603831726
33.76947200472812,0.00019994138454379582
33.76947200472812,0.00019994138454379582
33.80325792886854,0.0002019090848827778
33.80325792886854,0.0002019090848827778
33.837077655393266,0.00020389615012029205
33.837077655393266,0.00020389615012029205
33.870931218121136,0.00020590277083377923
33.870931218121136,0.00020590277083377923
33.90481865090482,0.00020792913947622607
33.90481865090482,0.00020792913947622607
33.93873998763091,0.0002099754503946245
33.93873998763091,0.0002099754503946245
33.97269526221985,0.00021204189984860917
33.97269526221985,0.00021204189984860917
34.00668450862602,0.0002141286860292815
34.00668450862602,0.0002141286860292815
34.04070776083782,0.00021623600907821918
34.04070776083782,0.00021623600907821918
34.07476505287759,0.00021836407110666892
34.07476505287759,0.00021836407110666892
34.10885641880177,0.0002205130762149337
34.10885641880177,0.0002205130762149337
34.14298189270084,0.00022268323051194525
34.14298189270084,0.00022268323051194525
34.177141508699364,0.00022487474213503283
34.177141508699364,0.00022487474213503283
34.211335300956115,0.00022708782126988665
34.211335300956115,0.00022708782126988665
34.245563303663964,0.00022932268017071392
34.245563303663964,0.00022932268017071392
34.27982555105007,0.00023157953318059897
34.27982555105007,0.00023157953318059897
34.314122077375764,0.0002338585967520579
34.314122077375764,0.0002338585967520579
34.34845291693669,0.00023616008946779967
34.34845291693669,0.00023616008946779967
34.38281810406281,0.0002384842320616912
34.38281810406281,0.0002384842320616912
34.41721767311841,0.00024083124743992497
34.41721767311841,0.00024083124743992497
34.451651658502186,0.00024320136070240102
34.451651658502186,0.00024320136070240102
34.47610991939459,0.00024556703555220146
34.47610991939459,0.00024556703555220146
34.500585543940026,0.00024795572185834746
34.500585543940026,0.00024795572185834746
34.52507854446547,0.0002503676434584987
34.52507854446547,0.0002503676434584987
34.549588933306666,0.00025280302636763606
34.549588933306666,0.00025280302636763606
34.57411672280809,0.000255262098799238
34.57411672280809,0.000255262098799238
34.59866192532299,0.00025774509118666784
34.59866192532299,0.00025774509118666784
34.6232245532134,0.000260252236204766
34.6232245532134,0.000260252236204766
34.647804618850095,0.0002627837687916553
34.647804618850095,0.0002627837687916553
34.67240213461267,0.0002653399261707536
34.67240213461267,0.0002653399261707536
34.69701711288949,0.0002679209478730054
34.69701711288949,0.0002679209478730054
34.721649566077716,0.00027052707575932693
34.721649566077716,0.00027052707575932693
34.74629950658332,0.00027315855404327005
34.74629950658332,0.00027315855404327005
34.770966946821055,0.00027581562931390866
34.770966946821055,0.00027581562931390866
34.795651899214526,0.0002784985505589433
34.795651899214526,0.0002784985505589433
34.82035437619612,0.00028120756918803466
34.82035437619612,0.00028120756918803466
34.84507439020708,0.0002839429390563619
34.84507439020708,0.0002839429390563619
34.86981195369747,0.0002867049164884126
34.86981195369747,0.0002867049164884126
34.89456707912618,0.0002894937603019994
34.89456707912618,0.0002894937603019994
34.91933977896097,0.0002923097318325149
34.91933977896097,0.0002923097318325149
34.94413006567842,0.0002951530949574201
34.94413006567842,0.0002951530949574201
34.96893795176401,0.00029802411612097333
34.96893795176401,0.00029802411612097333
34.99376344971204,0.0003009230643591952
34.99376344971204,0.0003009230643591952
35.01860657202571,0.00030385021132508144
35.01860657202571,0.00030385021132508144
35.04346733121708,0.0003068058313140579
35.04346733121708,0.0003068058313140579
35.0683457398071,0.000309790201289684
35.0683457398071,0.000309790201289684
35.09324181032561,0.00031280360090960805
35.09324181032561,0.00031280360090960805
35.11815555531134,0.0003158463125517702
35.11815555531134,0.0003158463125517702
35.143086987311925,0.0003189186213408656
35.143086987311925,0.0003189186213408656
35.168036118883904,0.0003220208151750612
35.168036118883904,0.0003220208151750612
35.193002962592736,0.0003251531847529768
35.193002962592736,0.0003251531847529768
35.21798753101281,0.00032831602360092183
35.21798753101281,0.00032831602360092183
35.25878734967493,0.0003315226098852112
35.25878734967493,0.0003315226098852112
35.299634434672235,0.00033476051415235624
35.299634434672235,0.00033476051415235624
35.34052884076247,0.0003380300422778168
35.34052884076247,0.0003380300422778168
35.38147062276684,0.00034133150312446505
35.38147062276684,0.00034133150312446505
35.42245983557002,0.0003446652085717663
35.42245983557002,0.0003446652085717663
35.463496534120296,0.00034803147354524
35.463496534120296,0.00034803147354524
35.50458077342962,0.0003514306160462091
35.50458077342962,0.0003514306160462091
35.54571260857367,0.00035486295718184247
35.54571260857367,0.00035486295718184247
35.58689209469192,0.00035832882119548774
35.58689209469192,0.00035832882119548774
35.62811928698773,0.0003618285354973023
35.62811928698773,0.0003618285354973023
35.669394240728394,0.0003653624306951813
35.669394240728394,0.0003653624306951813
35.71071701124525,0.00036893084062599157
35.71071701124525,0.00036893084062599157
35.75208765393374,0.0003725341023871066
35.75208765393374,0.0003725341023871066
35.793506224253484,0.0003761725563682518
35.793506224253484,0.0003761725563682518
35.83497277772833,0.00037984654628365897
35.83497277772833,0.00037984654628365897
35.87648736994649,0.000383556419204538
35.87648736994649,0.000383556419204538
35.9180500565605,0.0003873025255918622
35.9180500565605,0.0003873025255918622
35.959660893287456,0.000391085219329476
35.959660893287456,0.000391085219329476
36.00131993590895,0.00039490485775752425
36.00131993590895,0.00039490485775752425
36.06992307316815,0.00039878044050672815
36.06992307316815,0.00039878044050672815
36.13865693870204,0.0004026940580923002
36.13865693870204,0.0004026940580923002
36.207521781622866,0.00040664608378682257
36.207521781622866,0.00040664608378682257
36.276517851517596,0.00041063689452616075
36.276517851517596,0.00041063689452616075
36.34564539844876,0.00041466687094541583
36.34564539844876,0.00041466687094541583
36.41490467295545,0.0004187363974152299
36.41490467295545,0.0004187363974152299
36.48429592605413,0.00042284586207844436
36.48429592605413,0.00042284586207844436
36.55381940923965,0.00042699565688712125
36.55381940923965,0.00042699565688712125
36.62347537448604,0.00043118617763992665
36.62347537448604,0.00043118617763992665
36.693264074247544,0.0004354178240198822
36.693264074247544,0.0004354178240198822
36.763185761459425,0.0004396909996324838
36.763185761459425,0.0004396909996324838
36.83324068953898,0.00044400611204419797
36.83324068953898,0.00044400611204419797
36.90342911238636,0.0004483635728213358
36.90342911238636,0.0004483635728213358
36.973751284385585,0.00045276379756930467
36.973751284385585,0.00045276379756930467
37.04420746040541,0.00045720720597224946
37.04420746040541,0.00045720720597224946
37.11479789580024,0.0004616942218330818
37.11479789580024,0.0004616942218330818
37.18552284641111,0.0004662252731138997
37.18552284641111,0.0004662252731138997
37.256382568566536,0.00047080079197680614
37.256382568566536,0.00047080079197680614
37.32737731908355,0.0004754212148251297
37.32737731908355,0.0004754212148251297
37.39850735526849,0.00048008698234504505
37.39850735526849,0.00048008698234504505
37.46977293491808,0.0004847985395476061
37.46977293491808,0.0004847985395476061
37.541174316320244,0.0004895563358111898
37.541174316320244,0.0004895563358111898
37.61271175825513,0.0004943608249243581
37.61271175825513,0.0004943608249243581
37.68438551999597,0.0004992124651291374
37.68438551999597,0.0004992124651291374
37.75619586131011,0.0005041117191647255
37.75619586131011,0.0005041117191647255
37.82814304245985,0.000509059054311628
37.82814304245985,0.000509059054311628
37.90022732420347,0.0005140549424362242
37.90022732420347,0.0005140549424362242
37.97244896779616,0.0005190998600357741
37.97244896779616,0.0005190998600357741
38.04480823499089,0.0005241942882838664
38.04480823499089,0.0005241942882838664
38.1173053880395,0.0005293387130763099
38.1173053880395,0.0005293387130763099
38.18994068969348,0.0005345336250774781
38.18994068969348,0.0005345336250774781
38.2627144032051,0.0005397795197671091
38.2627144032051,0.0005397795197671091
38.335626792328206,0.0005450768974875611
38.335626792328206,0.0005450768974875611
38.408678121319305,0.0005504262634915354
38.408678121319305,0.0005504262634915354
38.4818686549384,0.0005558281279902653
38.4818686549384,0.0005558281279902653
38.55519865845009,0.0005612830062021814
38.55519865845009,0.0005612830062021814
38.628668397624374,0.000566791418402049
38.628668397624374,0.000566791418402049
38.70227813873777,0.0005723538899705915
38.70227813873777,0.0005723538899705915
38.77602814857413,0.000577970951444603
38.77602814857413,0.000577970951444603
38.849918694425746,0.0005836431385675456
38.849918694425746,0.0005836431385675456
38.92395004409424,0.0005893709923406492
38.92395004409424,0.0005893709923406492
38.99812246589152,0.0005951550590745133
38.99812246589152,0.0005951550590745133
39.072436228640825,0.0006009958904412089
39.072436228640825,0.0006009958904412089
39.14689160167761,0.0006068940435268981
39.14689160167761,0.0006068940435268981
39.22148885485061,0.0006128500808849688
39.22148885485061,0.0006128500808849688
39.29622825852274,0.0006188645705896875
39.29622825852274,0.0006188645705896875
39.37111008357215,0.0006249380862903821
39.37111008357215,0.0006249380862903821
39.44613460139312,0.000631071207266155
39.44613460139312,0.000631071207266155
39.521302083897154,0.0006372645184811355
39.521302083897154,0.0006372645184811355
39.596612803513835,0.0006435186106402695
39.596612803513835,0.0006435186106402695
39.672067033191944,0.0006498340802456604
39.672067033191944,0.0006498340802456604
39.74766504640033,0.0006562115296534649
39.74766504640033,0.0006562115296534649
39.8297281401429,0.00066255349407698
39.8297281401429,0.00066255349407698
39.911960661481956,0.0006689567504939021
39.911960661481956,0.0006689567504939021
39.994362960217984,0.0006754218912614576
39.994362960217984,0.0006754218912614576
40.07693538687368,0.0006819495144617167
40.07693538687368,0.0006819495144617167
40.15967829269541,0.0006885402239569202
40.15967829269541,0.0006885402239569202
40.242592029654745,0.0006951946294453455
40.242592029654745,0.0006951946294453455
40.32567695044991,0.0007019133465177037
40.32567695044991,0.0007019133465177037
40.40893340850737,0.0007086969967140916
40.40893340850737,0.0007086969967140916
40.49236175798321,0.0007155462075814871
40.49236175798321,0.0007155462075814871
40.57596235376474,0.000722461612731804
40.57596235376474,0.000722461612731804
40.65973555147195,0.0007294438519005062
40.65973555147195,0.0007294438519005062
40.74368170745906,0.0007364935710057889
40.74368170745906,0.0007364935710057889
40.827801178816024,0.0007436114222083316
40.827801178816024,0.0007436114222083316
40.91209432337003,0.0007507980639716287
40.91209432337003,0.0007507980639716287
40.99656149968704,0.0007580541611229026
40.99656149968704,0.0007580541611229026
41.08120306707331,0.0007653803849146086
41.08120306707331,0.0007653803849146086
41.16601938557694,0.0007727774130865275
41.16601938557694,0.0007727774130865275
41.25101081598934,0.0007802459299284656
41.25101081598934,0.0007802459299284656
41.33617771984687,0.0007877866263435558
41.33617771984687,0.0007877866263435558
41.421520459432294,0.0007954001999121734
41.421520459432294,0.0007954001999121734
41.50703939777633,0.0008030873549564678
41.50703939777633,0.0008030873549564678
41.59273489865922,0.0008108488026055183
41.59273489865922,0.0008108488026055183
41.67860732661226,0.0008186852608611201
41.67860732661226,0.0008186852608611201
41.764657046919375,0.0008265974546642056
41.764657046919375,0.0008265974546642056
41.850884425618645,0.0008345861159619069
41.850884425618645,0.0008345861159619069
41.937289829503875,0.0008426519837752706
41.937289829503875,0.0008426519837752706
42.023873626126154,0.000850795804267619
42.023873626126154,0.000850795804267619
42.11063618379542,0.0008590183308135797
42.11063618379542,0.0008590183308135797
42.19757787158201,0.0008673203240687788
42.19757787158201,0.0008673203240687788
42.284699059318264,0.0008757025520402083
42.284699059318264,0.0008757025520402083
42.37200011760005,0.0008841657901572727
42.37200011760005,0.0008841657901572727
42.45948141778842,0.000892710821343524
42.45948141778842,0.000892710821343524
42.54714333201109,0.0009013384360890882
42.54714333201109,0.0009013384360890882
42.63498623316409,0.0009100494325237925
42.63498623316409,0.0009100494325237925
42.72301049491333,0.0009188446164910017
42.72301049491333,0.0009188446164910017
42.81121649169619,0.0009277248016221614
42.81121649169619,0.0009277248016221614
42.89960459872312,0.0009366908094120693
42.89960459872312,0.0009366908094120693
42.98817519197922,0.0009457434692948695
42.98817519197922,0.0009457434692948695
43.07692864822585,0.0009548836187207827
43.07692864822585,0.0009548836187207827
43.16586534500225,0.0009641121032335778
43.16586534500225,0.0009641121032335778
43.254985660627106,0.0009734297765487915
43.254985660627106,0.0009734297765487915
43.34428997420017,0.000982837500632705
43.34428997420017,0.000982837500632705
43.43377866560395,0.0009923361457820834
43.43377866560395,0.0009923361457820834
43.52345211550519,0.0010019265907046846
43.52345211550519,0.0010019265907046846
43.61331070535658,0.0010116097226005511
43.61331070535658,0.0010116097226005511
43.70335481739838,0.0010213864372440786
43.70335481739838,0.0010213864372440786
43.79358483465998,0.0010312576390668865
43.79358483465998,0.0010312576390668865
43.884001140961615,0.0010412242412414841
43.884001140961615,0.0010412242412414841
44.022127808820215,0.0010508827957443228
44.022127808820215,0.0010508827957443228
44.160689235950464,0.0010606309444684534
44.160689235950464,0.0010606309444684534
44.299686790774786,0.001070469518503506
44.299686790774786,0.001070469518503506
44.4391218460227,0.0010803993566484236
44.4391218460227,0.0010803993566484236
44.57899577874447,0.0010904213054829786
44.57899577874447,0.0010904213054829786
44.719309970324716,0.0011005362194399437
44.719309970324716,0.0011005362194399437
44.86006580649597,0.0011107449608779405
44.86006580649597,0.0011107449608779405
45.00126467735247,0.0011210484001549607
45.00126467735247,0.0011210484001549607
45.14290797736378,0.0011314474157025688
45.14290797736378,0.0011314474157025688
45.28499710538861,0.0011419428941007949
45.28499710538861,0.0011419428941007949
45.42753346468871,0.0011525357301537184
45.42753346468871,0.0011525357301537184
45.570518462942566,0.0011632268269657613
45.570518462942566,0.0011632268269657613
45.713953512259415,0.0011740170960186762
45.713953512259415,0.0011740170960186762
45.857840029193206,0.0011849074572492604
45.857840029193206,0.0011849074572492604
46.002179434756485,0.0011958988391277848
46.002179434756485,0.0011958988391277848
46.146973154434555,0.0012069921787371519
46.146973154434555,0.0012069921787371519
46.292222618199446,0.0012181884218527873
46.292222618199446,0.0012181884218527873
46.43792926052407,0.001229488523023273
46.43792926052407,0.001229488523023273
46.584094520396484,0.0012408934456517317
46.584094520396484,0.0012408934456517317
46.73071984133393,0.0012524041620779573
46.73071984133393,0.0012524041620779573
46.877806671397195,0.001264021653661316
46.877806671397195,0.001264021653661316
47.02535646320494,0.001275746910864413
47.02535646320494,0.001275746910864413
47.17337067394795,0.001287580933337536
47.17337067394795,0.001287580933337536
47.32185076540363,0.0012995247300038796
47.32185076540363,0.0012995247300038796
47.47079820395035,0.001311579319145564
47.47079820395035,0.001311579319145564
47.62021446058194,0.001323745728490451
47.62021446058194,0.001323745728490451
47.77010101092233,0.0013360249952997605
47.77010101092233,0.0013360249952997605
47.920459335239954,0.0013484181664565054
47.920459335239954,0.0013484181664565054
48.07129091846246,0.001360926298554745
48.07129091846246,0.001360926298554745
48.222597250191434,0.0013735504579896664
48.222597250191434,0.0013735504579896664
48.37437982471694,0.0013862917210485
48.37437982471694,0.0013862917210485
48.52664014103249,0.0013991511740022796
48.52664014103249,0.0013991511740022796
48.67937970284966,0.0014121299131984576
48.67937970284966,0.0014121299131984576
48.83260001861301,0.0014252290451543693
48.83260001861301,0.0014252290451543693
48.98630260151508,0.0014384496866515736
48.98630260151508,0.0014384496866515736
49.09736932449151,0.0014521873960922024
49.09736932449151,0.0014521873960922024
49.208687869228285,0.0014660563055757861
49.208687869228285,0.0014660563055757861
49.320258806681245,0.001480057668109699
49.320258806681245,0.001480057668109699
49.432082709100825,0.0014941927486679895
49.432082709100825,0.0014941927486679895
49.54416015003492,0.0015084628243056558
49.54416015003492,0.0015084628243056558
49.65649170433177,0.0015228691842740327
49.65649170433177,0.0015228691842740327
49.769077948143035,0.0015374131301372667
49.769077948143035,0.0015374131301372667
49.88191945892668,0.0015520959758899033
49.88191945892668,0.0015520959758899033
49.995016815449894,0.0015669190480756125
49.995016815449894,0.0015669190480756125
50.108370597792145,0.0015818836859070248
50.108370597792145,0.0015818836859070248
50.22198138734813,0.0015969912413867375
50.22198138734813,0.0015969912413867375
50.33584976683068,0.00161224307942945
50.33584976683068,0.00161224307942945
50.44997632027386,0.0016276405779852903
50.44997632027386,0.0016276405779852903
50.56436163303595,0.0016431851281643035
50.56436163303595,0.0016431851281643035
50.67900629180232,0.0016588781343621294
50.67900629180232,0.0016588781343621294
50.7939108845886,0.0016747210143868943
50.7939108845886,0.0016747210143868943
50.90907600074362,0.0016907151995872941
50.90907600074362,0.0016907151995872941
51.02450223095244,0.0017068621349819219
51.02450223095244,0.0017068621349819219
51.14019016723936,0.0017231632793898144
51.14019016723936,0.0017231632793898144
51.256140402971,0.0017396201055622496
51.256140402971,0.0017396201055622496
51.37235353285933,0.0017562341003158118
51.37235353285933,0.0017562341003158118
51.48883015296466,0.001773006764666711
51.48883015296466,0.001773006764666711
51.60557086069881,0.0017899396139664035
51.60557086069881,0.0017899396139664035
51.722576254828105,0.0018070341780384942
51.722576254828105,0.0018070341780384942
51.83984693547639,0.001824292001316947
51.83984693547639,0.001824292001316947
51.95738350412824,0.0018417146429856287
51.95738350412824,0.0018417146429856287
52.07518656363198,0.0018593036771191644
52.07518656363198,0.0018593036771191644
52.1932567182027,0.0018770606928251612
52.1932567182027,0.0018770606928251612
52.3115945734255,0.0018949872943877669
52.3115945734255,0.0018949872943877669
52.430200736258534,0.0019130851014126215
52.430200736258534,0.0019130851014126215
52.54907581503602,0.0019313557489731789
52.54907581503602,0.0019313557489731789
52.66822041947154,0.0019498008877584247
52.66822041947154,0.0019498008877584247
52.787635160661075,0.0019684221842220222
52.787635160661075,0.0019684221842220222
52.90732065108608,0.001987221320732857
52.90732065108608,0.001987221320732857
53.131623365881374,0.0020049428279095426
53.131623365881374,0.0020049428279095426
53.35687702106157,0.0020228223707379877
53.35687702106157,0.0020228223707379877
53.583085648176734,0.0020408613585377834
53.583085648176734,0.0020408613585377834
53.81025329586875,0.0020590612131964527
53.81025329586875,0.0020590612131964527
54.03838402994398,0.0020774233692815326
54.03838402994398,0.0020774233692815326
54.26748193344588,0.0020959492741536483
54.26748193344588,0.0020959492741536483
54.49755110672819,0.0021146403880805986
54.49755110672819,0.0021146403880805986
54.728595667528175,0.0021334981843524597
54.728595667528175,0.0021334981843524597
54.96061975104049,0.002152524149397714
54.96061975104049,0.002152524149397714
55.19362750999108,0.0021717197829004145
55.19362750999108,0.0021717197829004145
55.42762311471155,0.0021910865979183946
55.42762311471155,0.0021910865979183946
55.662610753213805,0.002210626121002532
55.662610753213805,0.002210626121002532
55.898594631265006,0.0022303398923170788
55.898594631265006,0.0022303398923170788
56.135578972462724,0.0022502294657610515
56.135578972462724,0.0022502294657610515
56.37356801831078,0.0022702964090907294
56.37356801831078,0.0022702964090907294
56.61256602829494,0.0022905423040432186
56.61256602829494,0.0022905423040432186
56.85257727995929,0.002310968746461134
56.85257727995929,0.002310968746461134
57.09360606898269,0.0023315773464183866
57.09360606898269,0.0023315773464183866
57.335656709255716,0.0023523697283470953
57.335656709255716,0.0023523697283470953
57.578733532957855,0.0023733475311656293
57.578733532957855,0.0023733475311656293
57.82284089063506,0.0023945124084077925
57.82284089063506,0.0023945124084077925
58.06798315127762,0.00241586602835316
58.06798315127762,0.00241586602835316
58.31416470239821,0.002437410074158578
58.31416470239821,0.002437410074158578
58.56138995011067,0.0024591462439908325
58.56138995011067,0.0024591462439908325
58.80966331920871,0.0024810762511605074
58.80966331920871,0.0024810762511605074
59.058989253245116,0.0025032018242570307
59.058989253245116,0.0025032018242570307
59.27375580961212,0.002526421986992224
59.27375580961212,0.002526421986992224
59.489303359259125,0.002549857544248236
59.489303359259125,0.002549857544248236
59.705634742249025,0.002573510494064449
59.705634742249025,0.002573510494064449
59.92275280897231,0.002597382853014427
59.92275280897231,0.002597382853014427
60.140660420185064,0.0026214766563778438
60.140660420185064,0.0026214766563778438
60.35936044704622,0.0026457939583140033
60.35936044704622,0.0026457939583140033
60.57885577115582,0.0026703368320369707
60.57885577115582,0.0026703368320369707
60.79914928459259,0.002695107369992328
60.79914928459259,0.002695107369992328
61.0202438899524,0.002720107684035572
61.0202438899524,0.002720107684035572
61.242142500386144,0.002745339905612153
61.242142500386144,0.002745339905612153
61.46484803963854,0.0027708061859392113
61.46484803963854,0.0027708061859392113
61.6883634420862,0.0027965086961889733
61.6883634420862,0.0027965086961889733
61.91269165277675,0.002822449627673858
61.91269165277675,0.002822449627673858
62.13783562746719,0.002848631192033306
62.13783562746719,0.002848631192033306
62.36379833266328,0.0028750556214223316
62.36379833266328,0.0028750556214223316
62.59058274565818,0.0029017251687018337
62.59058274565818,0.0029017251687018337
62.81819185457212,0.0029286421076306635
62.81819185457212,0.0029286421076306635
63.04662865839139,0.002955808733059481
63.04662865839139,0.002955808733059481
63.27589616700804,0.0029832273611264037
63.27589616700804,0.0029832273611264037
63.50599740125965,0.0030109003294544754
63.50599740125965,0.0030109003294544754
63.73693539296881,0.0030388299973509625
63.73693539296881,0.0030388299973509625
63.96871318498346,0.0030670187460085023
63.96871318498346,0.0030670187460085023
64.20133383121657,0.003095468978708114
64.20133383121657,0.003095468978708114
64.43480039668681,0.003124183121024097
64.43480039668681,0.003124183121024097
64.66911595755847,0.003153163621030828
64.66911595755847,0.003153163621030828
64.90428360118253,0.0031824129495114663
64.90428360118253,0.0031824129495114663
65.14030642613672,0.0032119336001686202
65.14030642613672,0.0032119336001686202
65.37718754226695,0.003241728089836942
65.37718754226695,0.003241728089836942
65.61493007072781,0.003271798958697707
65.61493007072781,0.003271798958697707
65.85353714402407,0.0033021487704953814
65.85353714402407,0.0033021487704953814
66.09301190605157,0.0033327801127561994
66.09301190605157,0.0033327801127561994
66.33335751213906,0.003363695597008766
66.33335751213906,0.003363695597008766
66.57457712908936,0.0033948978590067087
66.57457712908936,0.0033948978590067087
66.81667393522153,0.003426389558953393
66.81667393522153,0.003426389558953393
67.05965112041228,0.0034581733817287213
67.05965112041228,0.0034581733817287213
67.30351188613828,0.0034902520371180397
67.30351188613828,0.0034902520371180397
67.54825944551845,0.0035226282600431627
67.54825944551845,0.0035226282600431627
67.79389702335591,0.0035553048107955457
67.79389702335591,0.0035553048107955457
68.04042785618091,0.0035882844752716174
68.04042785618091,0.0035882844752716174
68.28785519229305,0.003621570065210297
68.28785519229305,0.003621570065210297
68.53618229180452,0.0036551644184327162
68.53618229180452,0.0036551644184327162
68.7854124266826,0.003689070399084151
68.7854124266826,0.003689070399084151
69.03554888079319,0.0037232908978782277
69.03554888079319,0.0037232908978782277
69.28659494994372,0.003757828832343363
69.28659494994372,0.003757828832343363
69.53855394192692,0.003792687147071506
69.53855394192692,0.003792687147071506
69.79142917656404,0.0038278688139691862
69.79142917656404,0.0038278688139691862
70.04522398574898,0.0038633768325108857
70.04522398574898,0.0038633768325108857
70.29994171349173,0.003899214229994768
70.29994171349173,0.003899214229994768
70.55558571596302,0.003935384061800772
70.55558571596302,0.003935384061800772
70.81215936153787,0.003971889411651107
70.81215936153787,0.003971889411651107
71.0696660308406,0.0040087333918731585
71.0696660308406,0.0040087333918731585
71.32810911678891,0.004045919143664836
71.32810911678891,0.004045919143664836
71.58749202463873,0.004083449837362383
71.58749202463873,0.004083449837362383
71.84781817202938,0.0041213286727106654
71.84781817202938,0.0041213286727106654
72.10909098902798,0.004159558879135976
72.10909098902798,0.004159558879135976
72.37131391817533,0.004198143716021361
72.37131391817533,0.004198143716021361
72.6344904145307,0.004237086472984506
72.6344904145307,0.004237086472984506
72.8986239457178,0.004276390470158201
72.8986239457178,0.004276390470158201
73.16371799197006,0.004316059058473398
73.16371799197006,0.004316059058473398
73.42977604617693,0.00435609561994491
73.42977604617693,0.00435609561994491
73.69680161392938,0.004396503567959731
73.69680161392938,0.004396503567959731
73.96479821356668,0.004437286347568075
73.96479821356668,0.004437286347568075
74.23376937622218,0.004478447435777079
74.23376937622218,0.004478447435777079
74.50371864587036,0.004519990341847235
74.50371864587036,0.004519990341847235
74.77464957937303,0.004561918607591586
74.77464957937303,0.004561918607591586
75.0465657465267,0.004604235807677689
75.0465657465267,0.004604235807677689
75.31947073010912,0.004646945549932376
75.31947073010912,0.004646945549932376
75.59336812592679,0.004690051475649348
75.59336812592679,0.004690051475649348
75.8682615428624,0.0047335572598996185
75.8682615428624,0.0047335572598996185
76.14415460292206,0.004777466611844841
76.14415460292206,0.004777466611844841
76.42105094128341,0.004821783275053535
76.42105094128341,0.004821783275053535
76.69895420634312,0.004866511027820257
76.69895420634312,0.004866511027820257
76.97786805976538,0.004911653683487719
76.97786805976538,0.004911653683487719
77.25779617652971,0.004957215090771911
77.25779617652971,0.004957215090771911
77.53874224497983,0.005003199134090209
77.53874224497983,0.005003199134090209
77.82070996687177,0.005049609733892579
77.82070996687177,0.005049609733892579
78.10370305742323,0.0050964508469957944
78.10370305742323,0.0050964508469957944
78.38772524536184,0.0051437264669208
78.38772524536184,0.0051437264669208
78.672780272975,0.005191440624233174
78.672780272975,0.005191440624233174
78.95887189615856,0.005239597386886767
78.95887189615856,0.005239597386886767
79.24600388446683,0.005288200860570522
79.24600388446683,0.005288200860570522
79.53418002116179,0.00533725518905851
79.53418002116179,0.00533725518905851
79.82340410326339,0.005386764554563218
79.82340410326339,0.005386764554563218
80.11367994159917,0.005436733178092107
80.11367994159917,0.005436733178092107
80.40501136085464,0.005487165319807485
80.40501136085464,0.005487165319807485
80.6974021996239,0.005538065279389711
80.6974021996239,0.005538065279389711
80.99085631045969,0.005589437396403775
80.99085631045969,0.005589437396403775
81.2853775599248,0.005641286050669275
81.2853775599248,0.005641286050669275
81.58096982864235,0.005693615662633822
81.58096982864235,0.005693615662633822
81.87763701134757,0.005746430693749917
81.87763701134757,0.005746430693749917
82.17538301693848,0.0057997356468553205
82.17538301693848,0.0057997356468553205
82.47421176852804,0.0058535350665569474
82.47421176852804,0.0058535350665569474
82.77412720349515,0.00590783353961833
82.77412720349515,0.00590783353961833
83.07513327353728,0.005962635695350654
83.07513327353728,0.005962635695350654
83.37723394472177,0.006017946206007463
83.37723394472177,0.006017946206007463
83.68043319753882,0.006073769787182987
83.68043319753882,0.006073769787182987
83.98473502695325,0.0061301111982141766
83.98473502695325,0.0061301111982141766
84.2901434424578,0.006186975242586472
84.2901434424578,0.006186975242586472
84.5966624681254,0.006244366768343333
84.5966624681254,0.006244366768343333
84.90429614266239,0.006302290668499566
84.90429614266239,0.006302290668499566
85.26617825521294,0.006358794129246922
85.26617825521294,0.006358794129246922
85.62960279458214,0.0064158041742260015
85.62960279458214,0.0064158041742260015
85.99457633495635,0.006473325345239748
85.99457633495635,0.006473325345239748
86.36110547854283,0.006531362224810823
86.36110547854283,0.006531362224810823
86.72919685568895,0.0065899194365466995
86.72919685568895,0.0065899194365466995
87.09885712500227,0.006649001645507996
87.09885712500227,0.006649001645507996
87.47009297347067,0.006708613558580154
87.47009297347067,0.006708613558580154
