"mass","coupling"
0.33333291995269193,7.030514636531319e-7
0.3339189175420859,7.057023566481899e-7
0.33450101069929455,7.083113966630038e-7
0.33567319475895036,7.136106822618363e-7
0.3380299002440916,7.242746586104791e-7
0.34279310409144637,7.46141044308891e-7
0.3525269345747318,7.916370665530613e-7
0.3728206812483872,8.909219656161545e-7
0.4209316486368561,1.1474770982220704e-6
0.4714502776821586,1.4483225436998935e-6
0.5268486828266739,1.7888101599577849e-6
0.5943360242921845,2.2446783778133203e-6
0.6650866434785965,2.7883846940525372e-6
0.7513123058297227,3.551536620934775e-6
0.8468272472177315,4.506573216774998e-6
0.9468378600399536,5.6006340999796905e-6
0.9486284960314745,5.621340107742755e-6
0.9504364321857841,5.642116313677975e-6
0.9540346070688309,5.683912174378795e-6
0.9612716579605719,5.7684285438623045e-6
0.9759399946818841,5.941250092693286e-6
1.0059215503357761,6.305854217161867e-6
1.0078238104270045,6.329167482060529e-6
1.0097296678101426,6.35303194520461e-6
1.0135523158130462,6.400562637008746e-6
1.0212559176054568,6.496700810560246e-6
1.0368241602392385,6.6918311299170535e-6
1.0686762401644383,7.094623241034668e-6
1.0705709414332447,7.118230962656211e-6
1.072468518810495,7.142431984531633e-6
1.0762587411031603,7.191097344548527e-6
1.0838789299944904,7.288333400849059e-6
1.0993139822708677,7.488437200444264e-6
1.1012466327046357,7.513896873423609e-6
1.1031990793988125,7.539451596098979e-6
1.1070976575464764,7.590813523354008e-6
1.1149527671784745,7.694026257076542e-6
1.1308137739619364,7.894193014863152e-6
1.1328012923830317,7.918115912582226e-6
1.134809683666863,7.94152104513826e-6
1.1388202265271208,7.986191458253029e-6
1.1408390320913744,8.008030105771016e-6
1.1428444283012138,8.029331683434869e-6
1.1469001566922992,8.069732814195356e-6
1.148916466064387,8.088811639164946e-6
1.1509534286206704,8.107342114631269e-6
1.1529766041770209,8.125311118620529e-6
1.1550205049874807,8.142109561715958e-6
1.1570682896523299,8.157748398057527e-6
1.159102475124324,8.172819023041508e-6
1.1632156381196286,8.20000526214143e-6
1.1652606309459124,8.211509798307501e-6
1.167326307855018,8.222428594402077e-6
1.1693959099978184,8.232147408868605e-6
1.1714517680594387,8.24065267451673e-6
1.1735284201003189,8.248562933743548e-6
1.1755912785576543,8.254649339811781e-6
1.1776755340162939,8.260135595901156e-6
1.1797632190306422,8.265011192417284e-6
1.1818373033539336,8.268669778301363e-6
1.183932366006034,8.27171517952957e-6
1.1860314097311078,8.274165352741267e-6
1.18811651385554,8.275386051994374e-6
1.1902224397040517,8.27660693133896e-6
1.192314911874398,8.277222099087455e-6
1.1944288173692912,8.277222099087455e-6
1.1965464706965707,8.277222099087455e-6
1.198614426307174,8.27660693133896e-6
1.2006862263249785,8.276001128999712e-6
1.202761336551878,8.275386051994374e-6
1.2048582141660222,8.274165352741267e-6
1.2069405347151905,8.273559729112213e-6
1.2090267263765204,8.272329983693346e-6
1.2111342542110046,8.27171517952957e-6
1.213227694698926,8.271109735239788e-6
1.2153244799719052,8.271109735239788e-6
1.2174254374386928,8.271109735239788e-6
1.2195473309068117,8.271109735239788e-6
1.2216553133625798,8.27171517952957e-6
1.2237672150766876,8.272944833553089e-6
1.2259001618513437,8.274780339016813e-6
1.2280188485716883,8.277222099087455e-6
1.2301417510654504,8.28027065018726e-6
1.2322680459321085,8.284551703304358e-6
1.2344158091028339,8.289451046415798e-6
1.2365497701593209,8.29495109159072e-6
1.238686862280367,8.301071726307953e-6
1.2408279273359855,8.309049339104045e-6
1.2429908897731383,8.317643424643877e-6
1.2451393943222588,8.326846502413016e-6
1.247291612552498,8.337308371019651e-6
1.2494658422314824,8.348394440733592e-6
1.2516252568150177,8.360097751226167e-6
1.255955571456739,8.38667910542572e-6
1.258145187170275,8.400923795138058e-6
1.2603201697110276,8.415818147595792e-6
1.2646802817724527,8.448168797958697e-6
1.2668851080262638,8.46564425721827e-6
1.2690746278078129,8.483155865338475e-6
1.27348452956036,8.520177766752292e-6
1.2823304301647251,8.601048800892961e-6
1.3002078733446705,8.779978515808454e-6
1.3367139425546808,9.163961480719582e-6
1.3392416007790688,9.190386818935893e-6
1.3417543959977554,9.217552652842999e-6
1.3467947460762824,9.271436346689693e-6
1.356950962560499,9.380192803267285e-6
1.3774940482551317,9.606479633168812e-6
1.419518262338085,0.000010101623576068035
1.4221819995373222,0.000010134472576055389
1.4248712735197848,0.000010167439845836512
1.4302232109907111,0.000010234445565601014
1.4410088883868104,0.000010370537891503955
1.4628248691845513,0.00001065133576642246
1.465569541493808,0.000010687554884136443
1.4683193635829488,0.000010723897162411365
1.473856403986092,0.00001079616259939189
1.4849707959520106,0.000010942952489756295
1.4877570202701524,0.000010980169412058565
1.4905484723314741,0.000011017506705443708
1.4961693388260788,0.000011092575103920629
1.4989765747712294,0.00001113028835797955
1.5017894161195517,0.000011168142408557632
1.5046295625624444,0.00001120611258122487
1.5074523327633222,0.000011244224509576595
1.6863787474482435,0.000013228368874425802
1.6895679846006204,0.000013245966016623317
1.6927880344486932,0.000013263571631297567
1.6992212980195143,0.000013298853092215222
1.7121871014228138,0.000013370699058298353
1.7154506460941823,0.000013389458032953168
1.7187200242089895,0.000013409239908451993
1.7252518395899894,0.000013449868265436221
1.7384162674366603,0.000013540503282987433
1.7417039166404913,0.000013566503365413677
1.7450237223623837,0.000013592561025808798
1.7516815401562753,0.000013648852970234538
1.76502140155945,0.000013775355329870063
1.7683856519881118,0.000013808942157633927
1.771755915867351,0.000013844660891370574
1.7784892885980061,0.000013917394449243092
1.7920603451303718,0.000014072311269109309
1.7954757292372374,0.000014112874506496775
1.7988708827171378,0.000014153554666839898
1.805734144470195,0.000014238409428119661
1.8195130973793494,0.00001441285335067554
1.8473589405208082,0.000014777986052442842
1.9043643441022664,0.00001553281642419251
1.9079370393728492,0.000015581036949636973
1.9114888844028404,0.000015629398372057864
1.9186405109010973,0.00001572543861423168
1.9329954015494482,0.000015920449508745476
1.9620569110018262,0.000016323775387462316
2.0214672209897073,0.000017184168369239866
2.1457709698204734,0.00001905882921561782
2.3984433724852265,0.00002253475100842882
2.402943529167311,0.000022594694058392594
2.4074879156462563,0.000022656467643867333
2.4166019432737973,0.00002277718724391093
2.4348979922688017,0.00002301883568664765
2.4719066961382516,0.000023501195250811773
2.547657466871907,0.000024454871982765436
2.5524749578429033,0.000024514497419177333
2.5573021344059277,0.000024572455695646512
2.566945734832675,0.000024690618675745023
2.5864184798722305,0.000024924988837256913
2.6257295951534454,0.000025389114154214768
2.7061936087293867,0.000026296859840943245
2.710951846630779,0.00002634736914497956
2.7157178391923327,0.000026399922657424156
2.725314872421245,0.000026503389398335788
2.744570005737513,0.00002670758574414166
2.7834906165234616,0.000027110725227241263
2.8630367268865884,0.00002788591158690419
2.8680700924776277,0.000027933275525944635
2.873112306983854,0.000027980719912156862
2.883264904710531,0.000028073811381355597
2.9036366543913,0.000028258824124648186
2.944813644649978,0.00002861768735636469
3.028969334240934,0.00002929942826703701
3.034742071611337,0.000029342699355818592
3.0405710076381403,0.00002938821849858315
3.0521717483609305,0.00002947508703614169
3.075551896872262,0.00002964525497610743
3.1228515567346458,0.00002997306406609629
3.2196421873054626,0.00003057627922873288
3.2257790435493643,0.000030612402796815654
3.2319749110194027,0.000030646325734619613
3.244305918212168,0.00003071651541335506
3.2691578467527966,0.00003085282564724683
3.3194342719468546,0.00003111350834094867
3.4223193897819164,0.00003162977934118417
3.4287406268421003,0.00003166481184923051
3.4351739119552827,0.00003169754505310771
3.4480767168052444,0.00003176545595073302
3.4739770431745947,0.000031904067713599266
3.5264668541203914,0.00003219976581046817
3.5330827054886447,0.000032240185362350363
3.5396599467649934,0.00003227829288451444
3.5529552100322737,0.00003235697502864472
3.5796957385514045,0.0000325221841446678
3.6337288841033506,0.000032872068458487834
3.6405467850412148,0.00003291818768504251
3.6473782997558657,0.00003296437161647151
3.6610781623019655,0.000033059390949517446
3.688577624340285,0.00003325268599539535
3.744309084319467,0.000033665070939330816
3.8581988041271504,0.000034594460516088704
3.864924264527056,0.00003465323836938353
3.8717189998590746,0.00003471209654457951
3.8852288210463235,0.00003483272137332607
3.9125072454369954,0.00003507779750718159
3.9675801384890237,0.00003559411205137651
4.08006063548065,0.00003669571946495542
4.314745516232384,0.00003902529222995462
4.322905454635452,0.00003910315565024052
4.331079849453821,0.00003918404248143779
4.347539664652647,0.00003934049233297082
4.380585037638274,0.000039655313155025876
4.447494325164916,0.000040292510298798416
4.455970547226757,0.00004037290207768076
4.464397566863134,0.000040456415442804385
4.481365051381918,0.00004062094158974971
4.515426605661769,0.00004096415736503694
4.584395470429331,0.00004169617961601652
4.593064329596411,0.00004179170044996378
4.601817985105692,0.000041890506266268186
4.6192411693577755,0.0000420950523791703
4.654418817562924,0.000042516504978395516
4.725509592435796,0.00004342027139957026
4.870897194336652,0.00004542970700272058
4.879533013818253,0.000045550551257697485
4.888183043181796,0.00004567508584374972
4.905529131244746,0.00004592522909116219
4.940334975938054,0.00004642963287679878
5.010763766443809,0.00004746551629040505
5.154568789096041,0.00004968780902317704
5.454759638195049,0.00005481231056830467
6.09500853746297,0.00006754345849207048
6.874946429096764,0.00008554203445484249
7.692441232441125,0.00010788193146137589
8.688579964511856,0.00013937944537687554
9.792011582483012,0.00017952901022812333
10.947157305498846,0.00022705014736889843
12.354179138477717,0.0002917642832274803
13.830561010517668,0.0003662266011680522
15.448892563052345,0.0004550349961568927
17.420126607712756,0.0005712933246498504
19.485211751971654,0.0006974187387833972
19.522338695728713,0.000699687036312959
19.55926325776135,0.0007019113314656622
19.633605032385088,0.000706379964063551
19.78312842962517,0.000715403965819488
20.085889586932648,0.0007336361029570073
20.7050754133611,0.0007712790038563623
20.744536018407363,0.0007737308888572617
20.783772245121202,0.0007761328814511627
20.862758794014393,0.0007809012189079385
21.021946054755727,0.0007905851615286753
21.34335843693374,0.0008099562723737631
22.00131804752902,0.0008483786385059571
22.04033007804926,0.000850573086882287
22.07940133790495,0.0008528351542103163
22.15775176721605,0.0008572528118088297
22.315609369545356,0.0008660920345768515
22.63407431938678,0.000883522843689646
23.285039103207477,0.0009178177475842303
23.326306372257065,0.0009199198375182237
23.367667829518552,0.0009219587354697885
23.450600333316682,0.0009261872413149308
23.617328098199028,0.0009344946621098561
23.954715097217427,0.0009508431796488192
24.643662023639333,0.0009822987046558644
24.686247370491643,0.0009841854403432448
24.729285035500737,0.0009860030694227783
24.815216717552946,0.0009896478471429948
24.988325859056744,0.0009966848877097675
25.33818676983938,0.0010101623576068035
25.382361017053714,0.0010118034745210953
25.426234321806987,0.0010133730788116858
25.51495560534157,0.001016443475305841
25.692575733181943,0.0010224625115013283
26.052308563539977,0.0010334630801349782
26.09771604532111,0.001034760360209366
26.14282583824587,0.0010359834348572918
26.234047567513148,0.001038432168755578
26.41706626893571,0.0010431179291985574
26.46272805738501,0.0010441962426275743
26.508862814453106,0.001045275670753041
26.60096636111826,0.001047437875703739
26.786544827707075,0.0010513878880003024
26.83323203560948,0.001052318907731952
26.88001272423048,0.0010531736597036896
26.97341796031644,0.0010549630585247895
27.020430875951945,0.00105574208353776
27.067135577598453,0.0010565990210793725
27.161582556244817,0.0010581600633736686
27.208935686659036,0.0010588633442584446
27.255966218081664,0.0010596446527525048
27.35107209480087,0.0010609747978930228
27.398348308409908,0.0010616016426203325
27.446101850043785,0.001062149912260508
27.54147418670311,0.0010633263281610535
27.593566145967177,0.0010638760875450134
27.645731726252148,0.0010643470224228622
27.69760915957102,0.0010648181657645166
27.749996432607734,0.0010652901174794825
27.80247026749238,0.0010656830703291325
27.854629274954803,0.0010659981371849091
27.907313535923198,0.0010663126967961766
27.96008484946605,0.001066627949799632
28.012539550803073,0.0010668640001879708
28.065522483353156,0.0010670213961345898
28.118592961986167,0.001067178214421389
28.17135772313808,0.0010672569326696873
28.22462833083817,0.0010672569326696873
28.277999670553815,0.0010672569326696873
28.331050798084853,0.0010672569326696873
28.38463616298137,0.0010671001028155047
28.43831006938687,0.0010670213961345898
28.491674782208886,0.0010667853109214067
28.545551093210914,0.0010665486774173625
28.599542164082358,0.0010662340481923957
28.653196523526177,0.001065919511782273
28.707378263943475,0.001065447281228973
28.761675414813702,0.0010650544153226191
28.815646925253187,0.0010645040470362124
28.870122846748473,0.0010639545622185835
28.924714783833544,0.0010633263281610535
28.978992238933074,0.0010626200830304337
29.0338031206234,0.0010619149048938534
29.088704568799244,0.0010611319224732773
29.143276624594233,0.0010602701146129442
29.25361092304243,0.0010583942397741001
29.30849235248943,0.0010573792541495718
29.36392645087383,0.0010562867322302877
29.474657979167983,0.0010539507699233487
29.530393061507038,0.0010527076686327925
29.586233536058145,0.0010513878880003024
29.697816762805424,0.0010485974064295715
29.753960424571844,0.0010470510609171973
29.80979396564726,0.0010455069957694618
29.92265164964939,0.0010421944630494213
30.149188706277293,0.0010348372698906294
30.205750290323127,0.001032853431959586
30.262881462859408,0.0010307967820670345
30.377002955452475,0.0010263934651265983
30.434444326345837,0.0010241997304260926
30.49199431595629,0.0010218587772864638
30.606979794379647,0.0010169689953875092
30.66486985261824,0.001014420643779079
30.72239888367513,0.0010118034745210953
30.83871162266946,0.0010062930004157286
31.071722070535106,0.000994407383535632
31.126340743214282,0.000991401877376728
31.181532970899678,0.0009884065681424557
31.291266817501604,0.0009821538061233286
31.5118943936314,0.0009686927020702147
31.567741833630976,0.0009651245567125858
31.623246667124643,0.000961499172862518
31.73453498967322,0.0009540060846336947
31.958763001194157,0.0009380884714267899
32.01492651630265,0.0009339439220615767
32.07120317802976,0.0009296794796460427
32.18408244333277,0.0009210066534330298
32.41147224125272,0.0009025694925921151
32.468445961260144,0.0008977206466195412
32.52551983113882,0.0008928314892864995
32.64048331620583,0.000882805779712817
32.87060910335431,0.0008617569137980476
32.92840473836465,0.0008562412273697678
32.98627227713492,0.0008506985731262272
33.102849409557805,0.0008393486506861139
33.336250040820694,0.0008156549644081261
33.39534576594579,0.0008095381822069369
33.454048964154694,0.0008032890466502131
33.5717802341558,0.0007907017976696088
33.8089745160403,0.0007645348747684485
33.86842005734618,0.000757793819785315
33.927954837718964,0.0007510018285770831
34.04735387416638,0.0007371639810538063
34.28790822058244,0.0007083638432484163
34.34819585999167,0.0007008758423055721
34.40857400261724,0.0006933135618773554
34.52964887719272,0.0006777815349951838
34.77362644008338,0.000645368672233845
34.8398994823971,0.0006362410887510889
34.906298830667,0.0006269657725590992
35.039998262338585,0.0006079644839814985
35.106778967293636,0.0005982616994424149
35.17370278952226,0.0005884092161707454
35.307885693759935,0.0005683070542630947
35.37517694986811,0.0005580830730273646
35.442612417408576,0.000547718495116271
35.5783500316808,0.0005266307317546277
35.850369413060655,0.00048324422361014973
35.9186945574964,0.00047220926830327274
35.98714991887104,0.00046112008520446965
36.124989267436,0.0004389060110345887
36.40117166084036,0.00039474300247980545
36.960436390907596,0.00031102026997839924
37.03089382811146,0.0003012159809420772
37.10145215357027,0.0002915920049498139
37.243005935998426,0.0002728938333303277
37.52831052458478,0.0002378209909914917
37.59983355988406,0.00022957760938337505
37.671475937889575,0.00022152202687328212
37.81523860877189,0.000206035703964212
38.10489252724572,0.00017753954654788792
38.177531633667584,0.00017088044663247776
38.250274752284334,0.00016439843430833887
38.396228951885334,0.00015190454991863758
38.69035051816098,0.0001286539489670141
38.76408821823781,0.0001231813661361303
38.837948956390996,0.00011782840112795024
38.986145584801775,0.00010750833907484047
39.284786011621314,0.00008833927642487439
39.358486493162175,0.0000839348886986058
39.431756858878586,0.00007965002087951732
39.57988371381785,0.00007144541617451312
39.87718015530788,0.00005650873665437906
39.951992001783736,0.00005308452239839121
40.0269441995169,0.00004978691830712396
40.176709680016685,0.00004356789444573026
40.4784890613057,0.0000328114710532794
40.554428997315085,0.000030508660244620535
40.63052970273048,0.000028365375526349786
40.78255356879329,0.00002453985286950488
40.85906394702462,0.000022847897404068215
40.93571786305494,0.00002129614673239469
41.088902134477166,0.000018583813260064897
41.16596869697018,0.000017410096148530704
41.2432169614484,0.000016347883282251415
41.320610182903316,0.000015390174881931487
41.39753326835407,0.000014530335036406946
41.47519738330124,0.000013763160089060425
41.553025917844806,0.000013082735334929546
41.63098174580118,0.0000124837887989397
41.709102610927935,0.000011960700367541711
41.78673009727553,0.000011510390353299572
41.865143225410456,0.000011129467415265782
41.94370349639791,0.000010816095250833975
42.022392257598675,0.000010567549026191849
42.10060282740401,0.000010382795746045159
42.17962393975857,0.000010262426400229681
42.258755301060965,0.000010206535274768302
42.33805418820841,0.000010217834074945311
42.4168522566813,0.000010299607710139253
42.49642867173013,0.00001045661829652593
42.57617355482952,0.000010694658112953303
42.65606807983014,0.000011016694081227464
42.736093277299545,0.000011426599523764995
42.81565144791826,0.00001192808241831515
42.89597603281644,0.000012527155963506848
42.97647066968571,0.000013233255865016257
43.057116355375044,0.000014054660885169383
43.1372527165723,0.000015003274949722253
43.299299403928764,0.000017330620150352476
43.3805313397603,0.00001874219349082845
43.46193524847934,0.00002034217372413614
43.62453349821959,0.00002419100984255894
43.7063755916158,0.000026487739921890765
43.78839094963979,0.00002906682210763759
43.95221052386368,0.000035184078943644286
44.28236877719396,0.00005212948966094244
44.35955006992172,0.00005714617436175569
44.43754644525515,0.00006261795686706676
44.59260503977022,0.00007497282113583682
44.67032705415442,0.00008187910574124897
44.748869861502364,0.00008927648822157094
44.905014775475316,0.00010548071443417702
44.98330156220846,0.00011424068100364954
45.06237436732938,0.0001233814874552126
45.219633580291195,0.00014273129284478266
45.53643619280732,0.00018516720975472333
45.61646076453452,0.00019644330800988653
45.69600845994982,0.00020794508101109352
45.85545828140832,0.00023153444136734156
45.93608487770079,0.00024357598914288725
46.016148490186175,0.00025577185294970356
46.17671539544221,0.00028051034673688577
46.25790685072007,0.0002930158123105239
46.338510505077245,0.0003056275894061332
46.500223193193705,0.00033103340506957115
46.82601853515862,0.00038252560797852813
46.908351645194266,0.00039555932538132797
46.990088689083336,0.0004086752499333486
47.15407526253848,0.0004351649525383631
47.48445169990247,0.0004899233220974538
48.152099889693076,0.0006126937596646885
48.236764618036126,0.0006295619208559466
48.320859931738404,0.0006467513523675028
48.4894688047779,0.0006820969322549207
48.829179438867804,0.0007568441990783321
49.51649332105261,0.0009212104770607954
49.6101488434656,0.0009448972088097097
49.703959117111474,0.0009688356146671349
49.89211217123876,0.0010176448996099625
50.27135027065233,0.0011181333578742824
50.36715952797541,0.0011437558335329649
50.46240127040584,0.001169534053287677
50.653448204280224,0.0012214929832859275
51.03845035333295,0.0013269439141828866
51.13496147264471,0.0013535502827104972
51.23241663658127,0.0013803846454470423
51.42637879190847,0.0014341765301670612
51.81723242109819,0.001542998369222942
52.607921413148375,0.0017658550780307
52.7074478061044,0.0017942305410980934
52.80711491489432,0.0018227920229265354
53.00777894544461,0.001880315623916249
53.40990581105865,0.0019974722836515837
54.22489770889004,0.0022415316325836666
55.89235444173337,0.002766656006900585
55.99146096947044,0.0027986920072074796
56.08988420048991,0.0028308909447450105
56.288948761336584,0.0028957619494541518
56.6883316527882,0.003027092784980792
57.49476403212871,0.0032954647208281946
59.143939878264895,0.0038490412500454528
59.247904617838564,0.00388385381060751
59.35293436417316,0.003918981232532218
59.56269419489686,0.003989012734408876
59.98530505464252,0.004128584567255568
60.83951620494506,0.004409191500237118
62.5837587800802,0.005010392294694192
62.69283820694447,0.00505048777208891
62.80117422687679,0.00509127963231803
63.019430133273616,0.005174997963227189
63.45716251366024,0.005350536752837588
64.34281322325218,0.005730665415345099
64.4540295065337,0.0057795097946392515
64.56636869380387,0.005828340575139811
64.78976699455299,0.005925491469639354
65.24079528064223,0.006115646450564209
65.35356372215051,0.006161401124731127
65.46747073913555,0.006206582450134427
65.69398683433093,0.006293760244577829
65.80851682975938,0.006335235759311471
65.92226657558851,0.006375573647221174
66.15130976760756,0.006452255170471851
66.26565202959463,0.006487589633648316
66.38019193170285,0.006521191459353087
66.4958882949797,0.006553031778347762
66.61082615950875,0.006582599441605916
66.72596269365543,0.006610349903576024
66.84229182163993,0.006635276448032923
66.95779828244507,0.006657350047023731
67.07453158941465,0.00667752288338563
67.19046963645559,0.006694793332670406
67.30660808192546,0.006709136696608404
67.42394949911433,0.00672202317154419
67.54049151354937,0.006732449107937842
67.65720449455523,0.006741896573595726
67.77515713672025,0.0067503595059022784
68.0096271445791,0.006765320911893959
68.12819419555747,0.006772814045397219
68.24598423501384,0.006780315478144593
68.36391633890072,0.0067888285479737916
68.4830702049804,0.006798355129391039
68.60144290512142,0.0068094017022759185
68.72104171957794,0.006822480759736238
68.83982575248568,0.006837603939279393
68.95878404099453,0.0068557940816350695
69.07900583908517,0.006876568235189078
69.19840861147483,0.006900971423920499
69.31804899497402,0.0069290398542078
69.43886585230419,0.006961330951383249
69.55885930881709,0.006998420777676208
69.67909150592024,0.007040380369568591
69.80060051944365,0.007088346404063014
69.92121906959133,0.007142431984531633
70.05239523315315,0.007208094801497141
70.18489237161782,0.0072824182155539685
70.31659487492115,0.00736620240068078
70.44851278586668,0.00746030141195706
70.58172734813779,0.007564530988313101
70.71414266260592,0.007681546761850972
70.84683830824865,0.0078107425635846025
70.98083805677783,0.007954429614598529
71.11400212551963,0.008113324317427088
71.24744811059372,0.008288837303342273
71.38217341901628,0.008482534944747466
71.51609041560775,0.00869550563772562
71.65029092252499,0.008930946986594678
71.78581032176606,0.00918902080038302
72.05544391974915,0.009786807175939332
72.1405638711322,0.01
