"mass","coupling"
0.019090909467205323,6.679580103043022e-11
0.019090909467205323,7.125950605818508e-11
0.019090909467205323,8.110172625020581e-11
0.019090909467205323,9.230333417400683e-11
0.019090909467205323,1.0505208573925709e-10
0.019090909467205323,1.1956166932565703e-10
0.019090909467205323,1.360752875237377e-10
0.019090909467205323,1.5486973357852234e-10
0.019090909467205323,1.76260030863418e-10
0.019090909467205323,2.0060471314894538e-10
0.019090909467205323,2.2831183417160495e-10
0.019090909467205323,2.5984580723235354e-10
0.019090909467205323,2.957351894667177e-10
0.019090909467205323,3.3658154126269785e-10
0.019090909467205323,3.8306950932372085e-10
0.019090909467205323,4.3597830238404454e-10
0.019090909467205323,4.961947519269794e-10
0.019090909467205323,5.647281768233408e-10
0.019090909467205323,6.427273010439795e-10
0.019090909467205323,7.31499508012869e-10
0.019090909467205323,8.325327543328597e-10
0.019090909467205323,9.475205101913263e-10
0.019090909467205323,1.078390144484668e-9
0.019090909467205323,1.2273352304393302e-9
0.019090909467205323,1.3968523132204686e-9
0.019090909467205323,1.58978275580905e-9
0.019090909467205323,1.809360364547652e-9
0.019090909467205323,2.0592655926312165e-9
0.019090909467205323,2.343687230075341e-9
0.019090909467205323,2.6673926141793764e-9
0.019090909467205323,3.0358075373180094e-9
0.019090909467205323,3.4551071914369006e-9
0.019090909467205323,3.932319673619834e-9
0.019090909467205323,4.475443787637405e-9
0.019090909467205323,5.093583116009567e-9
0.019090909467205323,5.797098609832821e-9
0.019090909467205323,6.597782254008576e-9
0.019090909467205323,7.509054718764882e-9
0.019090909467205323,8.546190310410303e-9
0.019090909467205323,9.726572991835171e-9
0.019090909467205323,1.106998776405146e-8
0.019090909467205323,1.259895229276718e-8
0.019090909467205323,1.4339094338558608e-8
0.019090909467205323,1.6319581316941738e-8
0.019090909467205323,1.857360918842003e-8
0.019090909467205323,2.1138958873045982e-8
0.019090909467205323,2.4058629515847017e-8
0.019090909467205323,2.738155921760311e-8
0.019090909467205323,3.116344531151528e-8
0.019090909467205323,3.54676779348439e-8
0.019090909467205323,4.0366402543591124e-8
0.019090909467205323,4.594172917958214e-8
0.019090909467205323,5.22871087590928e-8
0.019090909467205323,5.950889945170464e-8
0.019090909467205323,6.772814940426889e-8
0.019090909467205323,7.708262569113213e-8
0.019090909467205323,8.77291234989019e-8
0.019090909467205323,9.984609425118484e-8
0.019090909467205323,1.1363663672464791e-7
0.019090909467205323,1.2933190129203636e-7
0.019090909467205323,1.4719496435241636e-7
0.019090909467205323,1.6752523788995928e-7
0.019090909467205323,1.9066348807214975e-7
0.019090909467205323,2.1699754700672242e-7
0.019090909467205323,2.4696881339502173e-7
0.019090909467205323,2.810796510425785e-7
0.019090909467205323,3.1990180923714265e-7
0.019090909467205323,3.6408600613245726e-7
0.019090909467205323,4.143728357697979e-7
0.019090909467205323,4.716051815554711e-7
0.019090909467205323,5.367423442629529e-7
0.019090909467205323,6.108761213663726e-7
0.019090909467205323,6.952491072193207e-7
0.019090909467205323,7.912755208176827e-7
0.019090909467205323,9.005649102513447e-7
0.019090909467205323,1.0249491311672695e-6
0.019090909467205323,1.1665130514438361e-6
0.019090909467205323,1.3276294967332754e-6
0.019090909467205323,1.5109990226124047e-6
0.019090909467205323,1.71969517998313e-6
0.019090909467205323,1.9572160324393655e-6
0.019090909467205323,2.2275427891094455e-6
0.019090909467205323,2.535206535749246e-6
0.019090909467205323,2.885364182600177e-6
0.019090909467205323,3.2838849020131405e-6
0.019090909467205323,3.737448504663916e-6
0.019090909467205323,4.253657403294291e-6
0.019090909467205323,4.841164040660773e-6
0.019090909467205323,5.509815917576251e-6
0.019090909467205323,6.270820651934165e-6
0.019090909467205323,7.136933835354369e-6
0.019090909467205323,8.122672836212504e-6
0.019090909467205323,9.24456013271538e-6
0.019090909467205323,0.000010521400254653168
0.019090909467205323,0.000011974594975791475
0.019090909467205323,0.000013628502040005057
0.019090909467205323,0.000015510843433946338
0.019090909467205323,0.00001765317004951682
0.019090909467205323,0.00002009139052458802
0.019090909467205323,0.00002286637312614308
0.019090909467205323,0.00002602463076431192
0.019090909467205323,0.00002961910061917235
0.019090909467205323,0.00003371003144804275
0.019090909467205323,0.00003836599344588017
0.019090909467205323,0.00004366502758557299
0.019090909467205323,0.00004969595370281202
0.019090909467205323,0.00005655985925102279
0.019090909467205323,0.0000643717936801461
0.019090909467205323,0.00007326269683962068
0.019090909467205323,0.00008338159372852174
0.019090909467205323,0.00009489809238019109
0.019090909467205323,0.00010800522674968714
0.019090909467205323,0.00012292269225515327
0.019090909467205323,0.00013990052820567672
0.019090909467205323,0.0001592233088387049
0.019090909467205323,0.00018121491321515182
0.019090909467205323,0.000206243953922859
0.019090909467205323,0.000234729955581701
0.019090909467205323,0.0002671503867114358
0.019090909467205323,0.00030404866282705275
0.019090909467205323,0.00034604325490561434
0.019090909467205323,0.00039383805589628655
0.019090909467205323,0.0004482341790319635
0.019090909467205323,0.000510143385700053
0.019090909467205323,0.0005806033679438686
0.019090909467205323,0.0006607951417524931
0.019090909467205323,0.0007520628426769853
0.019090909467205323,0.000855936255577433
0.019090909467205323,0.0009741564561335248
0.019090909467205323,0.0011087049939091846
0.019090909467205323,0.0012618371061236169
0.019090909467205323,0.0014361195188418584
0.019090909467205323,0.001634473469190026
0.019090909467205323,0.001860223669712728
0.019090909467205323,0.0021171540355894108
0.019090909467205323,0.0024095711087821665
0.019090909467205323,0.0027423762421997476
0.019090909467205323,0.003121147753793681
0.019090909467205323,0.003552234427613522
0.019090909467205323,0.004042861929040506
0.019090909467205323,0.004601253917880053
0.019090909467205323,0.005236769889351918
0.019090909467205323,0.005960062053401721
0.019090909467205323,0.006783253881868627
0.019090909467205323,0.0077201433162300765
0.019090909467205323,0.008786434041993037
0.019090909467205323,0.009999998706239901
0.01947093873117025,0.009999998706239901
0.01985853296953924,0.009999998706239901
0.02025384277291981,0.009999998706239901
0.02065702172962044,0.009999998706239901
0.021068226485323697,0.009999998706239901
0.021487616803947212,0.009999998706239901
0.021915355629716197,0.009999998706239901
0.022351609150471585,0.009999998706239901
0.022796546862238382,0.009999998706239901
0.023250341635079375,0.009999998706239901
0.023713169780259707,0.009999998706239901
0.024185211118748468,0.009999998706239901
0.024666649051083907,0.009999998706239901
0.025157670628629357,0.009999998706239901
0.025658466626247673,0.009999998706239901
0.026169231616422282,0.009999998706239901
0.026690164044853755,0.009999998706239901
0.027221466307561188,0.009999998706239901
0.027763344829518415,0.009999998706239901
0.02831601014485558,0.009999998706239901
0.02887967697865719,0.009999998706239901
0.029454564330388507,0.009999998706239901
0.0300408955589826,0.009999998706239901
0.03063889846962123,0.009999998706239901
0.031248805402243163,0.009999998706239901
0.031870853321814385,0.009999998706239901
0.03250528391039526,0.009999998706239901
0.03315234366104038,0.009999998706239901
0.03381228397356766,0.009999998706239901
0.03448536125223379,0.009999998706239901
0.035171837005354076,0.009999998706239901
0.03587197794690534,0.009999998706239901
0.03658605610015133,0.009999998706239901
0.03731434890333099,0.009999998706239901
0.038057139317450486,0.009999998706239901
0.0388147159362211,0.009999998706239901
0.03958737309818548,0.009999998706239901
0.04037541100107596,0.009999998706239901
0.041179135818449286,0.009999998706239901
0.041998859818643174,0.009999998706239901
0.04283490148610081,0.009999998706239901
0.043687585645110445,0.009999998706239901
0.04455724358600823,0.009999998706239901
0.04544421319389331,0.009999998706239901
0.046348839079905044,0.009999998706239901
0.0472714727151136,0.009999998706239901
0.04821247256707574,0.009999998706239901
0.04917220423910892,0.009999998706239901
0.05015104061233787,0.009999998706239901
0.05114936199056877,0.009999998706239901
0.05216755624804733,0.009999998706239901
0.05320601898015814,0.009999998706239901
0.054265153657124025,0.009999998706239901
0.0553453717807648,0.009999998706239901
0.056447093044376666,0.009999998706239901
0.05757074549579413,0.009999998706239901
0.0587167657036979,0.009999998706239901
0.059885598927233365,0.009999998706239901
0.06107769928900554,0.009999998706239901
0.0622935299515177,0.009999998706239901
0.06353356329712224,0.009999998706239901
0.0647982811115538,0.009999998706239901
0.06608817477111557,0.009999998706239901
0.06740374543359219,0.009999998706239901
0.06874550423296265,0.009999998706239901
0.07011397247798937,0.009999998706239901
0.07150968185476049,0.009999998706239901
0.07293317463326399,0.009999998706239901
0.07438500387807377,0.009999998706239901
0.07586573366323003,0.009999998706239901
0.07737593929139684,0.009999998706239901
0.07891620751738246,0.009999998706239901
0.0804871367761091,0.009999998706239901
0.0820893374151207,0.009999998706239901
0.0837234319317191,0.009999998706239901
0.08539005521482068,0.009999998706239901
0.08708985479162748,0.009999998706239901
0.08882349107920869,0.009999998706239901
0.09059163764109,0.009999998706239901
0.09239498144895109,0.009999998706239901
0.09423422314953196,0.009999998706239901
0.09611007733685299,0.009999998706239901
0.09802327282985344,0.009999998706239901
0.09997455295555696,0.009999998706239901
0.10196467583787372,0.009999998706239901
0.1039944146921517,0.009999998706239901
0.10606455812559117,0.009999998706239901
0.10817591044363946,0.009999998706239901
0.11032929196248495,0.009999998706239901
0.11252553932777158,0.009999998706239901
0.11476550583965771,0.009999998706239901
0.1170500617843459,0.009999998706239901
0.11938009477221206,0.009999998706239901
0.12175651008266551,0.009999998706239901
0.12418023101587403,0.009999998706239901
0.1266521992514903,0.009999998706239901
0.12917337521451946,0.009999998706239901
0.13174473844846943,0.009999998706239901
0.1343672879959297,0.009999998706239901
0.13704204278672555,0.009999998706239901
0.1397700420337993,0.009999998706239901
0.14255234563697217,0.009999998706239901
0.14539003459474312,0.009999998706239901
0.14828421142428544,0.009999998706239901
0.15123600058980396,0.009999998706239901
0.15424654893941886,0.009999998706239901
0.1573170261507468,0.009999998706239901
0.16044862518535116,0.009999998706239901
0.16364256275223965,0.009999998706239901
0.16690007978058752,0.009999998706239901
0.1702224419018715,0.009999998706239901
0.17361093994160118,0.009999998706239901
0.1770668904208386,0.009999998706239901
0.18059163606770173,0.009999998706239901
0.1841865463390497,0.009999998706239901
0.18785301795255313,0.009999998706239901
0.19159247542935556,0.009999998706239901
0.195406371647538,0.009999998706239901
0.19929618840660002,0.009999998706239901
0.20326343700317848,0.009999998706239901
0.20730965881822583,0.009999998706239901
0.21143642591587758,0.009999998706239901
0.2156453416542407,0.009999998706239901
0.21993804130834077,0.009999998706239901
0.22431619270546918,0.009999998706239901
0.22878149687317859,0.009999998706239901
0.2333356887001768,0.009999998706239901
0.23798053761037694,0.009999998706239901
0.24271784825036552,0.009999998706239901
0.24754946119055518,0.009999998706239901
0.252477253640295,0.009999998706239901
0.2575031401772162,0.009999998706239901
0.26262907349109577,0.009999998706239901
0.26785704514252817,0.009999998706239901
0.27318908633669964,0.009999998706239901
0.2786272687125645,0.009999998706239901
0.28417370514773216,0.009999998706239901
0.2898305505793757,0.009999998706239901
0.2956000028414818,0.009999998706239901
0.3014843035187677,0.009999998706239901
0.3074857388175957,0.009999998706239901
0.3136066404542253,0.009999998706239901
0.3198493865607459,0.009999998706239901
0.32621640260904466,0.009999998706239901
0.33271016235316603,0.009999998706239901
0.3393331887904307,0.009999998706239901
0.34608805514168667,0.009999998706239901
0.3529773858510739,0.009999998706239901
0.36000385760568987,0.009999998706239901
0.3671702003755534,0.009999998706239901
0.3744791984742702,0.009999998706239901
0.3819336916408122,0.009999998706239901
0.3895365761428314,0.009999998706239901
0.3972908059019362,0.009999998706239901
0.40519939364136826,0.009999998706239901
0.41326541205652484,0.009999998706239901
0.4214919950087825,0.009999998706239901
0.4298823387430847,0.009999998706239901
0.438439703129768,0.009999998706239901
0.44716741293110723,0.009999998706239901
0.4560688590930741,0.009999998706239901
0.4651475000628088,0.009999998706239901
0.47440686313231867,0.009999998706239901
0.4838505458089239,0.009999998706239901
0.4934822172129848,0.009999998706239901
0.5033056195034512,0.009999998706239901
0.5133245693317912,0.009999998706239901
0.5235429593248601,0.009999998706239901
0.5339647595972896,0.009999998706239901
0.544594019293982,0.009999998706239901
0.55543486816331,0.009999998706239901
0.566491518161633,0.009999998706239901
0.577768265089754,0.009999998706239901
0.5892694902619509,0.009999998706239901
0.6009996622082339,0.009999998706239901
0.6129633384104866,0.009999998706239901
0.6251651670731692,0.009999998706239901
0.6376098889292677,0.009999998706239901
0.650302339082195,0.009999998706239901
0.6632474488843556,0.009999998706239901
0.6764502478531068,0.009999998706239901
0.6899158656248588,0.009999998706239901
0.7036495339480748,0.009999998706239901
0.7176565887159428,0.009999998706239901
0.7319424720395111,0.009999998706239901
0.7465127343620932,0.009999998706239901
0.7613730366157607,0.009999998706239901
0.7765291524207658,0.009999998706239901
0.791986970328745,0.009999998706239901
0.7955622962580671,0.009999998706239901
0.7986020973146741,0.009899589139346084
0.7998308897323841,0.009859801608987898
0.8026919102571407,0.009768356127956727
0.8042636389715858,0.009719881324085003
0.8054546292760052,0.009681733435613175
0.8077524961105771,0.009613778156468522
0.810012090972313,0.009547053701700886
0.8155563044341704,0.009388412835599559
0.815752558883011,0.009383372977175402
0.8158487408022442,0.0093808540626095
0.8160666642368477,0.009373597444545637
0.8217116302867119,0.009216383199528368
0.8238318550897842,0.009158489721290674
0.8276385568197479,0.009056369100135596
0.8284514385794034,0.009035796617620091
0.8319911694668787,0.008944927295298343
0.8336664022801905,0.008903209854855558
0.8384863783601139,0.008786434041993037
0.8397826016663918,0.00875568239654146
0.8402312945223815,0.008744903334487988
0.8411455904414047,0.008723936094207163
0.8459151771447551,0.008608695882463373
0.8485530306134605,0.00854611239543656
0.8520966366619909,0.0084644442660363
0.8540671304563598,0.00842071101416555
0.8569571860241019,0.008357118094588075
0.8626670315024868,0.008236050633816487
0.8647493533826338,0.008192721062317316
0.8654445770436187,0.008178242481630415
0.8668408730085853,0.008149362036822969
0.8711187446585552,0.008058493570673586
0.8740160280459363,0.007997636104754945
0.8775308274140295,0.00792621486774665
0.8799538597441721,0.007878042953395554
0.8826723715696629,0.007824724587824542
0.8840369023830007,0.007798816687611632
0.8881431645116054,0.0077201433162300765
0.890593356699441,0.007673587368277499
0.8914144483989542,0.007658090877643005
0.8930589035377144,0.007627312173699703
0.8971854845287905,0.007549653493210596
0.9002431076451771,0.007491692181622608
0.9037937871261704,0.0074259618596904595
0.9064834326143241,0.007377916698945452
0.9091592068293839,0.007330645461189144
0.914283655780241,0.00723655250229001
0.9171964957282521,0.007186667677403198
0.9181636119656024,0.007169663001890514
0.9201075463571705,0.007136788589851287
0.9239988779673094,0.007071267926701091
0.9272571976449512,0.0070146525351352474
0.9307889999730611,0.006954645158525313
0.9339836167221215,0.006901251932547521
0.9364408471205888,0.006860392649118139
0.9376403002490664,0.006840485926056034
0.9412297678216323,0.006783253881868627
0.944592031056434,0.006730538684811657
0.945715452393502,0.00671344689592255
0.947936653741953,0.006679604396826538
0.9516410962154713,0.006624450692084818
0.9550819142991464,0.006571931628659487
0.958645883450116,0.006515711541588831
0.9621583283481407,0.006462421389353499
0.9645411425949428,0.006426595648284864
0.9692312019384208,0.006358349947896477
0.9728854233578638,0.006306745207787616
0.9740940560486432,0.006290034209629756
0.9764688370875831,0.006257535484170702
0.9801361961081904,0.006206945009254378
0.9837415825275676,0.0061577359572482825
0.987386364083008,0.006106505565071875
0.9910684954168608,0.006056083955507749
0.9934846590887283,0.006023842562208483
0.9946925556188729,0.006007786290337166
0.9983154556221195,0.005960062053401721
1.0020214665181788,0.005909449550242134
1.003324232069846,0.005891278630302328
1.0061260747198584,0.005851961120722765
1.0092926617451576,0.005808501133433043
1.0132612571812658,0.00575526596131272
1.0165921600943562,0.005708375578849822
1.0218966936005909,0.005637152624687626
1.0232966995987853,0.005618754045683251
1.0257420717317443,0.005586722966097666
1.031406991637309,0.00551527553516572
1.0334315340574016,0.005490333661204045
1.0376473312706862,0.005439413143471407
1.0389664166470673,0.005423629660425227
1.0436667449459858,0.005369595215424842
1.0466089467790296,0.005334433272498312
1.0533112161030873,0.005259396866385349
1.054003326402896,0.005251677816773696
1.0543381362279338,0.005247698224793403
1.0553432039630424,0.005236769889351918
1.062180629757859,0.005164167397163598
1.064442282412539,0.0051411381137846665
1.0688668797538337,0.005096111475211737
1.0701355286871086,0.005083651906639934
1.074984626902883,0.005035946431153326
1.078178539421311,0.005005261199910237
1.0845009181558476,0.004942420655742987
1.0856313838439442,0.004931271312980479
1.087979617498094,0.004908737920322983
1.0941962269432632,0.0048448132523902085
1.0963835873472396,0.004821151882185027
1.1011528941579838,0.004770858875888904
1.1021018172689592,0.00476107393937436
1.1072422817662335,0.004709175965595168
1.1101286296756907,0.00468055574458628
1.1127118922550492,0.004654167096748121
1.1179502617742783,0.004601253917880053
1.1181331897952813,0.004599219678546393
1.118208521797772,0.0045986386325120145
1.118353819278399,0.004597331547314532
1.1262686319007666,0.004521224510265387
1.129283372584526,0.00449296597447902
1.1334864800780762,0.004454811966594244
1.1345014822527522,0.0044455348173729585
1.1355938965592327,0.004435996748699746
1.140467909818448,0.004391940597402961
1.1428082619343443,0.0043714574213801856
1.1491943640505247,0.00431303075463713
1.1510816927884961,0.004296306832444919
1.1517632198452525,0.004290340052166963
1.1532218228854805,0.0042773503706965395
1.159465234733588,0.004223648672792465
1.1631703997699323,0.004192811160743236
1.1679744697885055,0.004153727810502136
1.170841639232291,0.004130896492352229
1.17469055756332,0.004100736178314367
1.1766027725994257,0.004086254939205388
1.180493352399254,0.0040559080889688735
1.182141924416824,0.004042861929040506
1.1852349270630007,0.00401854511151038
1.1863248121697032,0.004010049825137168
1.1885619248136372,0.003993176155667798
1.1939648844487127,0.003952706274050613
1.1980742936155078,0.0039228555723965376
1.1992740905877795,0.00391419165779832
1.202817023662367,0.003889174361993637
1.2063065668706803,0.003865171463670044
1.209940143119056,0.003840467477177754
1.211807684264546,0.003828174757364136
1.2175096425572256,0.0037896165149557946
1.2208302973329548,0.003767417846364991
1.2219235132014123,0.003760165990939556
1.2240863749051598,0.003745881601829537
1.2298875370435745,0.003706981164853924
1.2340255677983272,0.003679799690396183
1.2390030281513391,0.003647341193654556
1.242340454916691,0.003626205006886289
1.2462474823732883,0.0036020611455879173
1.2482431432597374,0.0035897377416832265
1.252403757665066,0.003564597967148083
1.2544304046159118,0.003552234427613522
1.2575763749742215,0.003533490442997146
1.2585904440316937,0.003527245884431538
1.2606210359438297,0.0035148453642853345
1.2669306174560566,0.0034772457108341835
1.2710556516361535,0.0034533300235134864
1.2734556095608747,0.0034391791278434057
1.276363652824836,0.0034220583900963
1.279272180727514,0.003405130434444162
1.2836443159229356,0.0033799487588484557
1.2858576408967488,0.003367587390187849
1.292669825430096,0.003329721986096516
1.2954877050159455,0.0033150827113598183
1.2963576596195618,0.0033105309536859175
1.2980930751190345,0.0033006120501566576
1.3051082425236453,0.0032620569108480855
1.3091969175635723,0.0032402864325037626
1.314860332567891,0.0032108425964448763
1.3172225593545912,0.003198796568482936
1.3221633368224637,0.003172534311723206
1.324621547710527,0.003159434252420333
1.3286946250274947,0.0031383486622996028
1.3320749173718482,0.003121147753793681
1.3344680712101433,0.0031090453981291095
1.335258176814815,0.0031052178731281158
1.336797976983015,0.0030976258737755082
1.3442713432722897,0.0030577212279444487
1.3484827094326157,0.0030346294225361077
1.35082083283685,0.0030218124474892965
1.354000020661164,0.003005107877730345
1.3575851432062367,0.0029863253668614516
1.3618382191648022,0.002964521743592136
1.3638647360972496,0.0029543328371477947
1.3695141799657424,0.0029256386394083084
1.373804627502588,0.002904461573833287
1.37532600322202,0.0028971316263197264
1.3784932101824472,0.0028817988933863593
1.3838003132699885,0.0028552067034313465
1.3889473716626206,0.0028297535596839888
1.3938016527166417,0.002805900704119781
1.4001005331548868,0.0027760164260401707
1.4027036475199062,0.002764029795672346
1.4039327011052134,0.0027581865802780332
1.4073554021655779,0.0027423762421997476
1.4096327927571495,0.0027325192581942126
1.4141850250268875,0.0027118833668617675
1.4165961669306355,0.0027012826237551367
1.4217181080992376,0.002678174296874846
1.4244573781130945,0.002665683801084671
1.426776175007461,0.00265509591921931
1.4306262792648017,0.0026382093791476858
1.4347767295147011,0.002619940255726196
1.4439473743141893,0.0025805182794746513
1.4447953472566948,0.0025769344140345513
1.445191702001823,0.002575225687889753
1.4462422200361444,0.0025705934261596322
1.4557523282229088,0.002532073917492177
1.4591047471372638,0.0025183550115591017
1.4662701688434696,0.0024883087361920473
1.46638306886092,0.002487994373751342
1.4735558687677892,0.002458543283700597
1.4768568941376772,0.0024452227705005387
1.4859746813008505,0.0024095711087821665
1.487584482965096,0.002403566026849307
1.4881501157748787,0.002401403311876422
1.4893465285475935,0.002396894440281411
1.498454891143555,0.002363290671639176
1.5028889056868,0.002347221848727567
1.5093321002196538,0.002322956346906663
1.5124512323450539,0.0023113193234068348
1.5177736700711657,0.0022918365080940597
1.5269750526131425,0.002258635250986271
1.53125027432936,0.0022436323243551774
1.532805854673978,0.0022382528734627913
1.5360991558605523,0.002227040178346183
1.5424286331463786,0.0022059323811490857
1.5479869195600562,0.0021874415406525336
1.5535839260442197,0.0021679070458755292
1.5601468570041983,0.0021455630631142157
1.5633183392548482,0.002134949569058603
1.5647784816055388,0.002130167091763378
1.5687442895614938,0.0021171540355894108
1.5761371303061447,0.0020938114913944634
1.5788016028876528,0.002085626789203648
1.584388030162197,0.0020686343793866187
1.5876737304617605,0.0020588891116574363
1.594438214336256,0.0020384734247273443
1.5991562490748779,0.0020233984731270424
1.6092342869634628,0.0019926064097949983
1.6102296923730028,0.0019896190797170175
1.611842237371144,0.001984535222522202
1.622378828844265,0.0019543037153513707
1.6261775708123132,0.001943715197911045
1.634112344832033,0.001922133105392641
1.6342499648323232,0.0019216778164390794
1.6422833986596612,0.0018995302647377467
1.646089139471236,0.0018887015285819478
1.6503960318663595,0.0018766300183039179
1.6563792572484903,0.001860223669712728
1.6579781782191543,0.001856027290498335
1.658548740262029,0.0018544743946913263
1.659778310098688,0.0018511970760872792
1.6700334500538911,0.0018244945043420675
1.6749751754598485,0.0018120891411570381
1.6794303805745652,0.0018010192030863156
1.6822613758411191,0.0017940923575954911
1.6852755511157167,0.001786853484443809
1.6915642997404539,0.001771343898522066
1.6945339841113043,0.0017638903573533543
1.702671194100484,0.0017436990092629988
1.7068550556911508,0.0017339229222158058
1.708317724393046,0.0017304213369681901
1.711374468134248,0.0017233577133611735
1.7193525879710418,0.0017050299992703
1.7252370766651992,0.0016919398918708746
1.7319749648309133,0.0016768303722030267
1.7374511033918003,0.001664797897924139
1.7423239999209124,0.0016538962328409203
1.7446228420045822,0.0016486804873684926
1.7509308186649375,0.0016345767252192742
1.7509982265407436,0.001634473469190026
1.7573165696003392,0.0016207215897638106
1.759580153800228,0.0016158401181355004
1.7643240724980296,0.0016058422428409998
1.7701835792982856,0.0015937149775267937
1.7756566213834082,0.0015824538483595045
1.7770072143804332,0.0015796822055578047
1.7831490912119368,0.0015671831355563942
1.7912075139489294,0.0015512756112980037
1.7946068743388537,0.0015444309659005447
1.796213889430923,0.0015411173289099575
1.8007315899932748,0.0015320898316133304
1.8093221693390613,0.0015151978747675434
1.8123808431172639,0.0015093226439136514
1.8187325008239634,0.0014973093440052113
1.8225655769201656,0.0014899261080507915
1.8303308470879234,0.0014751987819124491
1.8358882507711993,0.0014649832968069037
1.8465293906823752,0.0014459967077429694
1.8484586297212573,0.0014423930254639959
1.849366157243653,0.0014407538212859953
1.8518864349937263,0.0014361195188418584
1.8575897375878552,0.0014257242510140322
1.862835434748646,0.0014163881218028178
1.8667659517552002,0.0014094261674392134
1.8751165320006873,0.0013946573202159847
1.8763937819091516,0.0013923905088027216
1.8775047483501193,0.0013904128161968251
1.8852545913662124,0.0013773215447215718
1.8901281229002587,0.001369167028422324
1.9036881455083356,0.0013472667670902095
1.9039263443419958,0.0013468838293146947
1.9040408736208698,0.0013466924012452135
1.9042928622857478,0.0013461607993486705
1.9178114515122917,0.0013234784394278423
1.9227830242559154,0.0013152687553499509
1.931704861448078,0.0013007673451861683
1.9334904687628127,0.0012979764980157054
1.941826462643151,0.0012850450399175305
1.9458112811824766,0.0012789306397146397
1.9572873406956677,0.0012618371061236169
1.9600961715889629,0.0012577783039197873
1.961058509178594,0.001256348904710012
1.9630790669499905,0.0012533366164829143
1.974371916372222,0.001236507044585272
1.980481031856502,0.0012277505430486621
1.9888521243552209,0.0012159987419487566
1.993168422486336,0.001210040868922407
2.000095917171939,0.0012006371898086524
2.0126087055172284,0.001182795460364626
2.0179716805428884,0.0011753841948865112
2.0199050703040067,0.0011726030690944246
2.0241816097820426,0.0011664893114486342
2.0324831014865588,0.001154813116562274
2.039910415300895,0.0011446449062109713
2.0472072397193584,0.0011349963452871
2.0558702636210797,0.0011238128546114982
2.0601138952667615,0.001118447952951672
2.0621422390374042,0.001115889658972953
2.0679008940076007,0.0011087049939091846
2.0772961507251346,0.0010974858674100932
2.0805174725504663,0.0010935584199136034
2.087356776492011,0.0010850771058318576
2.092410381055124,0.001078874320039578
2.1011231289361705,0.0010678052687692649
2.1074621683314576,0.0010600090573906946
2.120172172158652,0.0010449334803001756
2.1219328658358276,0.0010428726895870897
2.125039329200245,0.0010392555642209055
2.138272035697095,0.001024458966443298
2.1429487044835773,0.0010191337025654537
2.15302681064406,0.0010077381458157204
2.153762552203679,0.0010068790924986344
2.16417268613207,0.000995589114916684
2.1694749049270934,0.000989929149834478
2.1748633739956094,0.0009843169070521776
2.1844292219466404,0.0009741564561335248
2.18532291634455,0.0009733260297589006
2.1856068722507263,0.0009729879108882797
2.186227496900912,0.0009723427373546207
2.2011225117313074,0.0009565329616199106
2.2072533447259723,0.0009499841560344011
2.2135503775717615,0.0009431524353079173
2.216897645865165,0.0009396437158768335
2.2208857813669254,0.0009355716293341274
2.2291142060634477,0.0009272313437993618
2.2329147771169966,0.0009234026111844377
2.2434051903617482,0.0009131351649178291
2.2491342170035975,0.0009076715512887717
2.251191579592221,0.0009058099350187328
2.2554747532409314,0.0009018132578599197
2.265629554570865,0.0008926172069161287
2.2734876096710273,0.0008852188774967644
2.2818395497561275,0.000876787266384438
2.291274918925398,0.0008675997420687574
2.2960044618965503,0.0008630489604675961
2.2981046983553197,0.0008610884551643189
2.303618649997504,0.000855936255577433
2.307346378922266,0.0008525365455463162
2.3146194433029486,0.0008459913264311613
2.318744323313761,0.0008423383994422607
2.3276657272637427,0.000834631511625059
2.3313762734342154,0.0008314477222536431
2.3343287487883115,0.0008286947736509631
2.3417094026283483,0.0008222806494397413
2.3480962173519475,0.0008167928717703661
2.3645776120704145,0.0008030428669801743
2.364901930421244,0.0008027512240005718
2.3650441893450225,0.0008026371316685239
2.365357189100388,0.0008023202935984225
2.3818279247591194,0.0007881041519432289
2.388324159365282,0.0007827208384537796
2.398840429917547,0.0007740665507225683
2.403103835794066,0.0007704807874597939
2.4119783644439967,0.0007631902545057355
2.415858190402637,0.0007600388819401305
2.4259469525507296,0.0007520628426769853
2.433125469656802,0.0007465247547089894
2.4358668431725885,0.0007445114112689929
2.4418640887590994,0.0007400216714943105
2.450687161554541,0.0007335868229854359
2.459991915821084,0.0007265191685739726
2.4679717799487815,0.0007200993710477719
2.4823422896435834,0.0007087154529193255
2.484355925639699,0.0007071390348841391
2.4872268330020715,0.0007049535252295157
2.502696830577265,0.0006934804036612762
2.508961239086437,0.0006889718991544484
2.520457429561144,0.0006809238743796705
2.523370055612989,0.0006789480453437931
2.5338102460569427,0.0006716956848153366
2.5383257456849244,0.0006685630238330947
2.546326887921806,0.0006630112643055332
2.549269408570356,0.0006607951417524931
2.5560070665032457,0.0006558980601848515
2.55890536011663,0.0006537779852780255
2.5661809165392446,0.0006485947921242259
2.5737372377894787,0.0006433510793806354
2.584249018735109,0.0006362377573894334
2.609492052991505,0.0006194028453457761
2.609749492127636,0.0006192561295577284
2.6098436835229375,0.0006191876740833997
2.610069756742129,0.0006190507858360712
2.6280168565303788,0.0006076595536549747
2.635691840470713,0.0006029752944000976
2.6462401686698294,0.0005960259367121905
2.6549775064967753,0.0005904607470677916
2.661796000190538,0.0005860201175458782
2.6643846931564483,0.0005843196696582048
2.670109241535949,0.0005806033679438686
2.682601992220362,0.0005727709493168698
2.688158698159871,0.0005693798239403454
2.7003980104898617,0.0005621247767506257
2.701132319025513,0.0005617076834158866
2.702191894610641,0.0005610959155183631
2.7147824949677974,0.0005539639192233749
2.719967341790486,0.0005510930498739706
2.731661265484156,0.0005442342950161619
2.738531732140631,0.0005401583781075683
2.741669976563737,0.0005383188850060895
2.7500076979186208,0.0005334946882160911
2.7572029262672513,0.0005294155860571334
2.768823754508615,0.0005230330884409166
2.7761483689914215,0.0005190667650982084
2.7924812993201398,0.000510143385700053
2.795035680695522,0.0005086952426809923
2.796246466228521,0.0005080529437849537
2.799471056688846,0.0005062987963191381
2.814037949035992,0.0004985152083188866
2.8239407752708825,0.0004932525036156142
2.8330603377491874,0.000488415465214043
2.8507293563224483,0.0004794886467444621
2.851909371563168,0.00047888322526097506
2.8532820965155916,0.0004781879355210141
2.8715815677333945,0.00046892194911627507
2.8801549716741643,0.00046474167811774974
2.891111195552885,0.0004595451173979673
2.9028353951362793,0.000454191420656848
2.908680319077828,0.0004516021915459339
2.9109487398142684,0.0004505336366783971
2.9159679460409484,0.0004482341790319635
2.9230487627724284,0.0004449193903903541
2.930513408173667,0.0004412944596711142
2.9374881844197636,0.0004380171563513054
2.946208736898542,0.0004339684399569342
2.9501882764883245,0.00043222427338231666
2.9569750831650765,0.0004291973055191001
2.9665813657863294,0.00042502869181418345
2.9781386430028305,0.00042015672987138564
2.9904028306795296,0.00041506520753669085
2.995962688976416,0.00041271206265195706
3.0104435670122953,0.00040650202595473445
3.0116027376842407,0.0004060400576787183
3.0256350077759113,0.0004002210596391194
3.030676946321831,0.00039816581337068793
3.04058119005813,0.0003942612344474197
3.041634867416402,0.00039383805589628655
3.051222507319685,0.00039014840348275886
3.0556012042348906,0.0003884269637496939
3.0681843882723197,0.0003833565150240818
3.0715895408615146,0.00038203290521616773
3.085864188947547,0.00037652822225341017
3.1051696458144393,0.00036916798719289064
3.112784794953366,0.0003663453275360311
3.116426901334891,0.0003650170347771129
3.126806978069163,0.0003611978627654433
3.1335250611842977,0.0003586966328075042
3.147292309930258,0.00035374601464685155
3.154418697995417,0.0003512187237864244
3.162839461003917,0.00034834620569856704
3.169726480251997,0.00034604325490561434
3.1757190757896514,0.0003440868528990691
3.178463412667641,0.0003431805449233562
3.185867343225691,0.0003407986993706304
3.196947897488875,0.0003369507686063571
3.2099432371728756,0.00033246825874664254
3.2345045795005287,0.000324367058953854
3.2394424720296486,0.0003228644704715528
3.24173484105771,0.00032217175213326333
3.2481370988215374,0.00032019351148179445
3.2612306609312878,0.00031625341778395685
3.273841312216788,0.0003124012757847166
3.2829995073852873,0.0003096750131540302
3.290013596345474,0.00030762286307516805
3.3024494775804616,0.00030404866282705275
3.3050886092148373,0.00030333882163736725
3.306265769127579,0.00030302280536517956
3.3094175293969483,0.0003021530711874246
3.3273663634027852,0.00029715573745818687
3.3390113611532706,0.0002938980316971396
3.3711077824334477,0.00028500301376185844
3.3717729677390627,0.00028483202539119376
3.3720812688486594,0.0002847600609815475
3.372917068885916,0.00028453978306350363
3.3944920364091886,0.0002790217664914319
3.4054787042690813,0.0002763248365722416
3.4173970767953876,0.00027334729777772366
3.43586540779665,0.00026886035171497545
3.439206911282396,0.0002680717352685608
3.440431839563078,0.00026777554358158045
3.4430486873777397,0.0002671503867114358
3.463555196918543,0.00026228422075025623
3.4732691658840604,0.00025997478982141904
3.4788896299887275,0.00025864791659893963
3.4867500721704623,0.00025686493968793184
3.5012435448124166,0.0002534478243938243
3.5076687765153207,0.0002519791050533581
3.509906035326206,0.00025146627229671436
3.514427114784569,0.000250416050616588
3.5334538236555955,0.0002462899577037035
3.542409084384561,0.00024439910417085
3.5574078089706975,0.00024133069833014007
3.566543917526139,0.000239500612235678
3.5774934637918356,0.000237241875065936
3.5814552437882643,0.00023644142310689042
3.5893574251278433,0.000234729955581701
3.6050840176531027,0.0002314062156525333
3.6129253224566082,0.00022975659355487662
3.6252556776988163,0.00022725931533143355
3.6289647299858943,0.000226517584754671
3.635930527760389,0.00022515158150133633
3.6487081018487415,0.00022263402407208784
3.6530739489234927,0.00022176024612797905
3.661794889126712,0.0002200264396460277
3.6772990987548555,0.00021708567865382744
3.6848452775227636,0.00021569137704550184
3.701943197168215,0.0002126069990357804
3.706007126779505,0.0002119097440827578
3.7213403594554517,0.00020924262961633303
3.7267255518564126,0.00020821085370952689
3.736862907340391,0.000206243953922859
3.750861477403611,0.00020361599003058473
3.7581968923867475,0.00020227625381600441
3.772765542077928,0.0001996799242925883
3.7754171453915566,0.00019921374551153971
3.7806804604755775,0.00019832536420134373
3.7954184561640565,0.00019584468815813283
3.800471895666916,0.00019502060399972717
3.8102047363437967,0.0001933248049560135
3.8253799595167504,0.00019081323485660434
3.8330086660899565,0.0001895816881387287
3.850719951020278,0.00018678216130479531
3.8556150904601005,0.0001860050233647841
3.870971173273351,0.00018354796062997078
3.8759853154983555,0.0001827611869188292
3.8856030087856306,0.00018121491321515182
3.9012287119326032,0.00017877029931843473
3.909309664984097,0.00017752393619587623
3.922878059496507,0.00017544747112937752
3.926768785212401,0.00017490522678545515
3.934107430038215,0.00017384772374730046
3.9480278650111447,0.00017187667952725755
3.9527803941784763,0.0001712102219064813
3.962722126794345,0.00016986358671897643
3.978935587399249,0.00016758533659425902
3.9871295340242274,0.00016645375268902493
4.005244573118589,0.00016403201664255126
4.011291539142645,0.00016325926727017872
4.0266184699391365,0.0001613190780441735
4.032067055494378,0.0001606428093205742
4.043706277579314,0.0001592233088387049
4.059166830102102,0.00015734847737856314
4.0664985082866085,0.0001564564157026124
4.085642567035391,0.00015415578323532206
4.0863700855759815,0.00015410223182733173
4.087176406082372,0.00015400977775399368
4.10677352258486,0.00015178826541850903
4.114013007315995,0.0001509849436381186
4.129623130853769,0.000149249539393562
4.141723337707854,0.00014790268161482295
4.14744742471583,0.00014723614274972775
4.164286430192272,0.00014533251197349045
4.169229063964151,0.00014479413209740854
4.188524165305133,0.0001427123121347592
4.197180020620285,0.0001418091339449903
4.216026220908706,0.00013990052820567672
4.225633537659534,0.00013895368549987072
4.23000773410578,0.00013853079346178232
4.241820282532774,0.00013736307516478422
4.254136642153435,0.00013612563303452258
4.271902160385703,0.0001342299096580576
4.281987088668029,0.00013318255218002902
4.302435462316623,0.00013113714033392596
4.310330984115766,0.00013036485251949017
4.314211513319108,0.00012999068012781967
4.325312053777907,0.0001289438135304017
4.338904256340654,0.00012761482742272565
4.356939902381722,0.0001259012391615425
4.367645923352524,0.00012491886791012182
4.389601646652341,0.00012292269225515327
4.39638756960412,0.00012224510659497752
4.400091477749933,0.00012187883984314724
4.412347145422931,0.00012069889403576286
4.424594364830244,0.00011950017162043384
4.443670430703899,0.00011765746030194022
4.452874990287139,0.00011679842499128215
4.470093537381386,0.00011522279830701838
4.481659864380411,0.00011421186093225254
4.487680994034641,0.00011369356209050725
4.506508550829245,0.00011209961114615403
4.510847879151165,0.00011171785929384687
4.532127442455175,0.00010988056026352248
4.539854580132526,0.00010921965579017337
4.554537388260948,0.00010800522674968714
4.56928967182579,0.00010681442214297934
4.577014093015706,0.00010620885509828966
4.598295989072337,0.0001045677950329047
4.599136926218314,0.00010449515708313877
4.601107091486388,0.00010434673658026345
4.622345305522944,0.00010269876017503323
4.6289563873362,0.0001021939662767144
4.641782505287535,0.00010123976484383642
4.6590700796546995,0.00009995765890618424
4.6681254829635686,0.00009924509220828122
4.688770428504952,0.0000976869436246598
4.700088270612883,0.00009680539705214295
4.714359071931883,0.00009572295674719422
4.718364925991511,0.00009542861898042502
4.725443054284649,0.00009489809238019109
4.748466114418196,0.00009326373463968004
4.761050563061718,0.00009240750894873756
4.768754922416598,0.00009187781528410358
4.779161788457514,0.0000911983589803086
4.8038449517994835,0.00008948486861310635
4.808204491462593,0.00008918435594366379
4.8094309630485625,0.0000891027011624572
4.811537521381743,0.00008895366313118759
4.840101468808359,0.00008707995071422308
4.855825437160213,0.00008609265890598319
4.87131917870858,0.00008514344989162171
4.899577802228731,0.00008338159372852174
4.902419742436724,0.00008321452226101537
4.903918025541326,0.00008312389153825659
4.908911673339799,0.00008282642554856599
4.933980034485527,0.0000813575569442782
4.952486927802981,0.0000803259717827759
4.991918770926192,0.00007815855950142069
4.99819247583145,0.00007781616076475348
5.0015368614062305,0.00007763939327779948
5.012210524868783,0.00007707253606234937
5.03072033923464,0.00007611451421526596
5.051072590534345,0.00007510195068306677
5.063679193545889,0.0000744712456489874
5.0760241301168865,0.00007385283506864934
5.087370839088614,0.00007326269683962068
5.0964370354097674,0.00007282433997381056
5.10109892655555,0.0000726004129836429
5.115836393452965,0.00007188846325607403
5.129665979094578,0.00007123747720650409
5.151620728490352,0.00007023985761256998
5.187043786072091,0.00006867351167234093
5.197287927860029,0.00006821088581379815
5.202642903483487,0.00006797644856079291
5.219544655004106,0.0000672269786459578
5.231187009544514,0.0000667256052921642
5.25417040728055,0.00006576519975974563
5.265661936109612,0.00006530153666693961
5.280125219558712,0.00006472655206417595
5.288669548502801,0.0000643717936801461
5.30040232141886,0.00006391088870058177
5.3062082447093495,0.00006367815529666613
5.324407189194587,0.00006294127527704774
5.334396352307719,0.00006247482427048414
5.358761470166013,0.00006137172306833331
5.382331271396918,0.000060339535880589516
5.4008302831396575,0.0000595387099597486
5.411835188105922,0.0000590666833072785
5.4343307164971355,0.000058120975043904895
5.454386273421423,0.00005731609197969486
5.465434553539497,0.000056862584404980794
5.4681968292856835,0.00005674775278003213
5.472593039359469,0.00005655985925102279
5.492432978953931,0.00005575457755082534
5.501757694540921,0.000055372859509176036
5.517042032607086,0.0000547597551270177
5.519564772532914,0.00005465952793286336
5.535577814737948,0.000054034690729051685
5.562655045017798,0.0000530169420730429
5.5700748875890005,0.00005275801496312437
5.574231102713755,0.00005260658923558332
5.590658315637598,0.000052002756188270856
5.604625116495539,0.00005150174186022387
5.629438853781676,0.00005065475015291847
5.639878157033458,0.0000503039751576724
5.65855432833334,0.00004969595370281202
5.67570799181791,0.000049154244135802155
5.685193388024139,0.00004885242088997819
5.708110965228326,0.000048114303882755575
5.711435627470702,0.000048012589262466506
5.719934670047692,0.00004774792989489743
5.741500120837246,0.00004712314941350839
5.748079643186033,0.00004693449755674621
5.760540528914498,0.00004658299249001345
5.785599080953382,0.00004591395700970242
5.798364521251736,0.00004557153444251958
5.822999129565267,0.00004489716769068557
5.839864375344278,0.00004445267502532287
5.855792112464179,0.00004403900426950072
5.860556337559253,0.000043898735773207564
5.868542981892909,0.00004366502758557299
5.8969935054366855,0.00004285748058979904
5.913788472373445,0.00004237826490790924
5.933228922810506,0.00004182110435864085
5.965953615333872,0.00004092984439455233
5.969959912570447,0.00004082203718219608
5.972359234122483,0.000040756974260763
5.981620740308245,0.00004051567010619495
6.007351906466583,0.00003986572025983583
6.031510086645463,0.00003924106764280685
6.04454177124872,0.00003891336538571849
6.061304840130391,0.00003849831012765321
6.066440615585501,0.00003836599344588017
6.082239916748825,0.000037995160743812776
6.091246775220335,0.000037781543347533636
6.118744945459556,0.00003714493695921233
6.120408791538347,0.0000371079977174715
6.1249756485559725,0.00003700032186395521
6.1515751020268645,0.00003638894527633758
6.170668737667032,0.000035962742464890315
6.19727277718304,0.00003538806585922359
6.212500926710194,0.000035070932281938106
6.236493651283957,0.00003457378726858413
6.269668959247697,0.00003386424136722911
6.274030166949995,0.000033770777611558475
6.275056774270014,0.00003374625283917869
6.276445980966284,0.00003371003144804275
6.3050229331886145,0.0000331242374753429
6.3139495021005185,0.000032941647036541217
6.32885521049838,0.0000326371580810733
6.336168799035231,0.00003250239241289451
6.353205576904071,0.00003216028829983353
6.381272139124913,0.00003159843055177014
6.3922135324200156,0.00003138159949983296
6.398922858444635,0.000031246096110866314
6.428614273039032,0.00003065273149195419
6.430965820169899,0.000030606293324982526
6.4622984404329475,0.000029997588437766268
6.469828503061851,0.00002984637053505158
6.481483134683712,0.00002961910061917235
6.5088007475949325,0.00002910163880358168
6.526301700622922,0.000028782598770240014
6.548464664110673,0.000028388488587104836
6.583331196086839,0.000027763756179324234
6.587958142187666,0.000027681445660546716
6.590938855603225,0.000027629034667805403
6.604257529585752,0.00002739830452803888
6.627865221451888,0.00002699670185798402
6.656216183532251,0.000026533434288339257
6.666923145383936,0.000026300636258807707
6.678932819716714,0.00002602463076431192
6.689096891262447,0.00002579711166885263
6.701888236325402,0.000025514299026495937
6.7164491420816885,0.000025196357041836198
6.7221400247479135,0.00002507924209512348
6.73736091106138,0.00002475929094924131
6.754826277556598,0.000024394444398814606
6.772695417223169,0.000024019036906432285
6.788716782383475,0.000023690526671355892
6.807854859799358,0.000023292820613233883
6.828821186647857,0.00002286637312614308
6.842702883161937,0.00002257786181125443
6.855952922989533,0.000022307782675443545
6.8775307074417045,0.000021880701101677464
6.900969446963656,0.000021434020443171324
6.912685489310296,0.000021208081599899612
6.923854977161953,0.000020990490599526496
6.923854977161953,0.00002009139052458802
6.923854977161953,0.00001765317004951682
6.923854977161953,0.000015510843433946338
6.923854977161953,0.000013628502040005057
6.923854977161953,0.000011974594975791475
6.923854977161953,0.000010521400254653168
6.923854977161953,9.24456013271538e-6
6.923854977161953,8.122672836212504e-6
6.923854977161953,7.136933835354369e-6
6.923854977161953,6.270820651934165e-6
6.923854977161953,5.509815917576251e-6
6.923854977161953,4.841164040660773e-6
6.923854977161953,4.253657403294291e-6
6.923854977161953,3.737448504663916e-6
6.923854977161953,3.2838849020131405e-6
6.923854977161953,2.885364182600177e-6
6.923854977161953,2.535206535749246e-6
6.923854977161953,2.2275427891094455e-6
6.923854977161953,1.9572160324393655e-6
6.923854977161953,1.71969517998313e-6
6.923854977161953,1.5109990226124047e-6
6.923854977161953,1.3276294967332754e-6
6.923854977161953,1.1665130514438361e-6
6.923854977161953,1.0249491311672695e-6
6.923854977161953,9.005649102513447e-7
6.923854977161953,7.912755208176827e-7
6.923854977161953,6.952491072193207e-7
6.923854977161953,6.108761213663726e-7
6.923854977161953,5.367423442629529e-7
6.923854977161953,4.716051815554711e-7
6.923854977161953,4.143728357697979e-7
6.923854977161953,3.6408600613245726e-7
6.923854977161953,3.1990180923714265e-7
6.923854977161953,2.810796510425785e-7
6.923854977161953,2.4696881339502173e-7
6.923854977161953,2.1699754700672242e-7
6.923854977161953,1.9066348807214975e-7
6.923854977161953,1.6752523788995928e-7
6.923854977161953,1.4719496435241636e-7
6.923854977161953,1.2933190129203636e-7
6.923854977161953,1.1363663672464791e-7
6.923854977161953,9.984609425118484e-8
6.923854977161953,8.77291234989019e-8
6.923854977161953,7.708262569113213e-8
6.923854977161953,6.772814940426889e-8
6.923854977161953,5.950889945170464e-8
6.923854977161953,5.22871087590928e-8
6.923854977161953,4.9011837245644994e-8
6.923854977161953,4.745196047934352e-8
6.923854977161953,4.733669196496472e-8
6.913616977593406,4.639012037561325e-8
6.908412232790989,4.594172917958214e-8
6.894745601934496,4.468868530615867e-8
6.891561166295556,4.4405865658055226e-8
6.876074636464603,4.306393309501192e-8
6.8694930735514355,4.2509840550333357e-8
6.855952922989533,4.137718372780818e-8
6.847545074462766,4.0692843187924614e-8
6.843427346914328,4.0366402543591124e-8
6.831910878246406,3.9446293213206854e-8
6.825601506550548,3.89559705559358e-8
6.810967840842925,3.783784566811846e-8
6.803777370243756,3.72914651341837e-8
6.788716782383475,3.618509479888466e-8
6.782071969109009,3.569638917796681e-8
6.77879277783161,3.54676779348439e-8
6.769990859737165,3.483043140861301e-8
6.760565943936093,3.416522291718787e-8
6.747159322646587,3.324597782663261e-8
6.739128114606699,3.269973473119835e-8
6.7221400247479135,3.158161194499596e-8
6.71775826487105,3.129710741482718e-8
6.715414953880312,3.116344531151528e-8
6.709762053190412,3.0788719336238535e-8
6.696375618000551,2.995701006207091e-8
6.684077253355361,2.9211362912774025e-8
6.67514133690416,2.867202958821467e-8
6.656216183532251,2.7588174471058412e-8
6.652693704051506,2.747686063894883e-8
6.649557065248562,2.738155921760311e-8
6.622540965172517,2.653523146843731e-8
6.611332585013991,2.6192154813924944e-8
6.593476695244441,2.5666374671592022e-8
6.592493166438597,2.5626681262230223e-8
6.590938855603225,2.5580584527703457e-8
6.5625974908374225,2.4748848402240088e-8
6.538404157783398,2.4058629515847017e-8
6.532774512031075,2.390259531920177e-8
6.526301700622922,2.371983599596035e-8
6.50463630428774,2.304921297842322e-8
6.488473499035504,2.2551593732535604e-8
6.477273829535341,2.2211560596610015e-8
6.4622984404329475,2.1764311788265466e-8
6.450026458070744,2.140435010074824e-8
6.440690544849275,2.1138958873045982e-8
6.42289370569919,2.062647517461347e-8
6.398922858444635,1.996180767380529e-8
6.395859701178983,1.987718362492832e-8
6.39350560753294,1.9814811650834353e-8
6.3757010826882095,1.9347564427258e-8
6.368479770787887,1.9164188990137882e-8
6.344986795419036,1.857360918842003e-8
6.341110248461297,1.8478812209475105e-8
6.336168799035231,1.8357806637510754e-8
6.313827967419993,1.781850964630644e-8
6.296533172364117,1.7410155814912063e-8
6.286663066905072,1.718180164484358e-8
6.274030166949995,1.6891226940634867e-8
6.25961504189322,1.656784510167746e-8
6.248239088601865,1.6319581316941738e-8
6.232533426867619,1.5978350296936143e-8
6.212500926710194,1.5557527088978248e-8
6.2054793912166595,1.5411290375500487e-8
6.199599368120568,1.5297320551959634e-8
6.178542791092295,1.4864354994366049e-8
6.152774123561335,1.4357449084919584e-8
6.151811927266371,1.4339094338558608e-8
6.151708315102244,1.4337056371298493e-8
6.1515751020268645,1.4334565915771971e-8
6.1274667572938135,1.3882730705495453e-8
6.125005123210224,1.382824476631779e-8
6.121336618970308,1.375679836153468e-8
6.105803027698175,1.3440891543829504e-8
6.099841328944247,1.331707420952156e-8
6.091246775220335,1.314489642870468e-8
6.0749124669727035,1.282297667750915e-8
6.063288601395944,1.259895229276718e-8
6.050056370271485,1.2347601432807751e-8
6.031510086645463,1.2001534067759047e-8
6.025374462484773,1.1888910524726284e-8
6.020838408995283,1.1809752229441608e-8
6.000735493699499,1.1447982316362523e-8
5.995193724880645,1.1350766710892952e-8
5.977189533808033,1.106998776405146e-8
5.975061420582608,1.1037168846112742e-8
5.972359234122483,1.0995761009836972e-8
5.948624038279451,1.065135377809198e-8
5.928833565145513,1.0376562244104187e-8
5.922232383587425,1.0279836968164728e-8
5.913788472373445,1.016312610985144e-8
5.895972004332455,9.92112189528586e-9
5.881321616083102,9.726572991835171e-9
5.869813945559388,9.57507540821707e-9
5.855792112464179,9.393837749691751e-9
5.841958392297714,9.259944963724182e-9
5.826558936708836,9.117299153604681e-9
5.812025089479596,8.977559629787528e-9
5.798364521251736,8.850298997929862e-9
5.782259072999987,8.703648280068488e-9
5.7647556395222415,8.546190310410303e-9
5.752687026227303,8.43769437060275e-9
5.741500120837246,8.339790423205285e-9
5.7232111362584615,8.18038386262109e-9
5.704047067346239,8.01085580183846e-9
5.69455761819479,7.92478511797622e-9
5.685193388024139,7.842363519071433e-9
5.666088454623275,7.676808911458609e-9
5.646151028901515,7.509054718764882e-9
5.63770735898258,7.437061981722628e-9
5.629438853781676,7.367853659629057e-9
5.609481919486756,7.204688570120239e-9
5.588950214308353,7.038686522913668e-9
5.581156068156701,6.981560131365681e-9
5.574231102713755,6.929929985101191e-9
5.552225086639503,6.77132791477801e-9
5.527645294791402,6.597782254008576e-9
5.52344407435472,6.5674263154249e-9
5.519564772532914,6.540308035291101e-9
5.494812253908386,6.369664702606461e-9
5.467223296665389,6.184496287709503e-9
5.466302546953733,6.178053322540538e-9
5.465434553539497,6.172396864218956e-9
5.448195361634535,6.057574005264679e-9
5.438097774845175,5.991070460519369e-9
5.411835188105922,5.818745530035181e-9
5.41022077463005,5.8084623559819526e-9
5.408528761487448,5.797098609832821e-9
5.38248667863864,5.631420154910808e-9
5.358761470166013,5.483970963770563e-9
5.354868985568312,5.4599466631450846e-9
5.350618841069037,5.433967574515615e-9
5.327405817915975,5.293610837681467e-9
5.3218584013864385,5.261023236072637e-9
5.3062082447093495,5.2119002193900965e-9
5.29360917608387,5.173683911729086e-9
5.267157172805005,5.093583116009567e-9
5.258331288046274,5.067186068947552e-9
5.25417040728055,5.0547972205875364e-9
5.242527357555774,5.019952220277314e-9
5.223263364933825,4.963037193750699e-9
5.202642903483487,4.902120112348378e-9
5.1884542783447545,4.860875414292023e-9
5.16771011566837,4.774520385688985e-9
5.158219252698813,4.734573580061244e-9
5.151620728490352,4.707136927951384e-9
5.128222112288029,4.61118935450414e-9
5.1157379207709335,4.560421008051494e-9
5.10109892655555,4.5018143410217146e-9
5.098399417434662,4.49102055412924e-9
5.094426377716379,4.475443787637405e-9
5.068750153666934,4.373983384115464e-9
5.051072590534345,4.301234129367657e-9
5.040922580262925,4.250856244966005e-9
5.029534247275865,4.195101387845865e-9
5.014852332308804,4.12252679654223e-9
5.0015368614062305,4.058379903308328e-9
4.988868897356922,3.998324070065449e-9
4.974748550633293,3.932319673619834e-9
4.963032031802934,3.877802057910479e-9
4.952486927802981,3.8292375965124e-9
4.93730521351871,3.76103175058903e-9
4.9201807789016945,3.685998641257568e-9
4.910270163374229,3.6548127922988585e-9
4.903918025541326,3.635355291785739e-9
4.880704906074747,3.564405288307086e-9
4.875822073188741,3.549574993145231e-9
4.855825437160213,3.4896556140854767e-9
4.851294318889031,3.4763439570257243e-9
4.844062646734515,3.4551071914369006e-9
4.822118968749338,3.3901905311332274e-9
4.808204491462593,3.3496895597800534e-9
4.793072946522427,3.3063810893342065e-9
4.769305710623025,3.2386788130356247e-9
4.764282125573998,3.2242870469324414e-9
4.761050563061718,3.2149311700025335e-9
4.746398589914372,3.173816088028065e-9
4.735687033069043,3.144132003244868e-9
4.732634284169046,3.1356029008096182e-9
4.714359071931883,3.0852043045244163e-9
4.707240915315754,3.0660664388053177e-9
4.69588325202942,3.0358075373180094e-9
4.6790219570467775,2.989703071264184e-9
4.6681254829635686,2.960712095322577e-9
4.659866070367198,2.9391883140742138e-9
4.650826688973855,2.9158401933655303e-9
4.624614712863379,2.854826929745978e-9
4.622345305522944,2.849511712482479e-9
4.6217336461268435,2.848116984003851e-9
4.620566157481032,2.845644145551602e-9
4.592822593536342,2.78196671169705e-9
4.577014093015706,2.7463019756730096e-9
4.564092392770259,2.71735284346032e-9
4.54138410463556,2.6673926141793764e-9
4.535541912517924,2.6542396948227825e-9
4.532127442455175,2.646830510836789e-9
4.51965869544483,2.619591775048736e-9
4.507289321744966,2.5921420571374834e-9
4.487680994034641,2.5487068275909904e-9
4.479417496473034,2.5307377300340285e-9
4.465277676991797,2.5003067826667812e-9
4.451675177954047,2.470944077359053e-9
4.443670430703899,2.4536007270546353e-9
4.42414725510056,2.412410765898472e-9
4.412856768754369,2.3886782166401135e-9
4.400091477749933,2.36204355190321e-9
4.396800136395447,2.3552268328184216e-9
4.390953766758883,2.343687230075341e-9
4.36747778284301,2.3068184613606053e-9
4.356939902381722,2.2917126264091623e-9
4.337202897889616,2.263333566205829e-9
4.3314774615851865,2.255234032524085e-9
4.314211513319108,2.230862288979342e-9
4.30709642178969,2.2208086753325468e-9
4.29003088127627,2.1968783472880994e-9
4.277209219653826,2.1790483541150942e-9
4.271902160385703,2.171627670519977e-9
4.258991212147369,2.153662459171359e-9
4.247151284485117,2.1393230250800646e-9
4.23000773410578,2.1212565178016186e-9
4.21554947176977,2.106068224356727e-9
4.1969780489507755,2.086700103658004e-9
4.188524165305133,2.0779524091339386e-9
4.184182798916416,2.07333035434379e-9
4.170583546387892,2.0592655926312165e-9
4.153049516317993,2.0411013795891306e-9
4.14744742471583,2.035403742075489e-9
4.13664410468885,2.024311879737174e-9
4.122147887385755,2.0093733895480637e-9
4.10677352258486,1.98932302107366e-9
4.09360315153301,1.9714021051796035e-9
4.069199897886531,1.9387050727054803e-9
4.0664985082866085,1.9350955233615495e-9
4.06542236737172,1.933629155679729e-9
4.062899444938817,1.9302729194038e-9
4.037425868166373,1.896609905720973e-9
4.0266184699391365,1.8824651428828715e-9
4.009641461767126,1.860240629386478e-9
3.9998033612778134,1.847446326960545e-9
3.9871295340242274,1.831092675458224e-9
3.9822590516236693,1.823934940249483e-9
3.9725741616110506,1.809360364547652e-9
3.956281910086353,1.7847263431408364e-9
3.9480278650111447,1.7721994978551755e-9
3.930521508906018,1.7462227061350797e-9
3.922840304361956,1.7349248362836025e-9
3.909309664984097,1.7150921442622158e-9
3.904891258147345,1.7086576812493064e-9
3.8961631646123767,1.696021788363057e-9
3.879418803546642,1.6719271657345727e-9
3.870971173273351,1.6598774458983777e-9
3.8541310580944614,1.6359345620423617e-9
3.8449427982521756,1.6225547183672864e-9
3.8330086660899565,1.605222977189975e-9
3.829330616695145,1.599832235163948e-9
3.8221046533721443,1.58978275580905e-9
3.804671451527875,1.5645760438034668e-9
3.7954184561640565,1.5514367580984741e-9
3.7801892712504013,1.5300484795169037e-9
3.7657188021039576,1.5098847528410908e-9
3.7581968923867475,1.4995474805257262e-9
3.7558465542238544,1.4963301428069654e-9
3.7514030129105613,1.4901985505193233e-9
3.7316875296561185,1.4632855410714582e-9
3.7213403594554517,1.449302131143265e-9
3.7065778597678682,1.4337757447658119e-9
3.694824260407582,1.4218696448655333e-9
3.6848452775227636,1.4118450653080442e-9
3.6805565833627205,1.4075704816011764e-9
3.6696977358749807,1.3968523132204686e-9
3.6546916033053654,1.3819096464866158e-9
3.6487081018487415,1.3759643948488883e-9
3.6348633789640963,1.3624280836865934e-9
3.6289909250147874,1.3567594772898473e-9
3.6129253224566082,1.3410803126582005e-9
3.6034969911379484,1.3320039201082492e-9
3.5786643161327794,1.3093532967599495e-9
3.577786140958935,1.3086504138170694e-9
3.5774934637918356,1.3084437553570144e-9
3.5769081812821533,1.3079479081936075e-9
3.551361406654039,1.2878401621014086e-9
3.542409084384561,1.2808423497987286e-9
3.5250979124840036,1.2674409005849968e-9
3.524758659568097,1.2671206745287884e-9
3.5076687765153207,1.2539024002202148e-9
3.4990707408368302,1.2472662672767094e-9
3.4733694516438196,1.227567851716491e-9
3.4732691658840604,1.227451535567239e-9
3.473219024090009,1.227451535567239e-9
3.4730017513470512,1.2273352304393302e-9
3.4477905765194294,1.2074175492119684e-9
3.439206911282396,1.1995488551072694e-9
3.4235695887034794,1.18538689847254e-9
3.419329932379082,1.1815180242457116e-9
3.4054787042690813,1.1690265611561648e-9
3.3995269347316657,1.1637398419414476e-9
3.3846319008636514,1.1504547868058953e-9
3.3756612469295653,1.1424700520704836e-9
3.3720812688486594,1.139388862102951e-9
3.3638155867368114,1.1320707758395456e-9
3.3519227778212977,1.1216775818935374e-9
3.3390113611532706,1.1103973278059825e-9
3.3283912853259894,1.1011765681703629e-9
3.3082870073660873,1.0827247025104547e-9
3.306265769127579,1.0807771201190258e-9
3.30551011154608,1.0800093023160613e-9
3.303784678293435,1.078390144484668e-9
3.2831258973149797,1.05852983292791e-9
3.273841312216788,1.049739781914507e-9
3.2678286724628456,1.0440687269267149e-9
3.260854034332895,1.0375594795859837e-9
3.249512889274211,1.0268656580174727e-9
3.24173484105771,1.019625967289975e-9
3.2387722215966708,1.0169242618777978e-9
3.232279540150855,1.0108396410348214e-9
3.2168399422184515,9.966994420487139e-10
3.2099432371728756,9.903291038154245e-10
3.1950561835900135,9.76876858012852e-10
3.191759896872945,9.738423068337666e-10
3.178463412667641,9.61843644481219e-10
3.17348102502321,9.57327550003394e-10
3.1625959471241387,9.475205101913263e-10
3.1520894773253167,9.380953842225492e-10
3.147292309930258,9.338382628770047e-10
3.134505358381559,9.225364400775871e-10
3.1308270578757234,9.192786175319265e-10
3.116426901334891,9.067055724126511e-10
3.10972302863644,9.008108331554118e-10
3.095025226852255,8.881676982059551e-10
3.0887463920648655,8.827419378544059e-10
3.085864188947547,8.801804956468085e-10
3.0779001498718412,8.732299504481589e-10
3.0680662729087165,8.64748633598838e-10
3.0624315534825235,8.599004012656814e-10
3.0556012042348906,8.539996933725406e-10
3.0475612770265674,8.470552042825694e-10
3.030531107716008,8.325327543328597e-10
3.0272370261019046,8.296451771875918e-10
3.0256350077759113,8.282182264658813e-10
3.0210811742282515,8.243425551840731e-10
3.0070844945209516,8.125288249329306e-10
2.995962688976416,8.035449600664174e-10
2.9866421066136786,7.96507427190767e-10
2.967809336171067,7.825054973469981e-10
2.9665813657863294,7.81616220805921e-10
2.966096029277817,7.812213112513012e-10
2.964868767796478,7.803827908142793e-10
2.945670032266258,7.662648616604557e-10
2.9374881844197636,7.602859167661683e-10
2.9254269316012165,7.515235365662549e-10
2.917118814254499,7.455418614953682e-10
2.908680319077828,7.393742217600542e-10
2.9053928504173507,7.369494081810211e-10
2.898006138197837,7.31499508012869e-10
2.8856556563078017,7.223954632327451e-10
2.8801549716741643,7.183793723238768e-10
2.86602495892287,7.081736780344554e-10
2.8658732523257697,7.080171170148359e-10
2.851909371563168,6.979806806788033e-10
2.846562051658671,6.941770590852818e-10
2.834614953680028,6.856782806098732e-10
2.8272177100176683,6.804785679529192e-10
2.8239407752708825,6.781612186676273e-10
2.8153382527724014,6.720838112696656e-10
2.808085903634777,6.669239904602342e-10
2.796246466228521,6.584676292044521e-10
2.7891775152488303,6.534949043457179e-10
2.773731375768493,6.427273010439795e-10
2.770429776879195,6.402856623285991e-10
2.768823754508615,6.391440238676372e-10
2.764397026191955,6.360124918944611e-10
2.7518875079118303,6.272245416107772e-10
2.7447325669949,6.222715205568829e-10
2.741669976563737,6.201132186623813e-10
2.733462763907551,6.144395570872218e-10
2.714880477226981,6.026095146157438e-10
2.7147824949677974,6.025809643084764e-10
2.7147433030542842,6.02523867751834e-10
2.714573477967012,6.02466776605276e-10
2.695905535356562,5.911939452159625e-10
2.688158698159871,5.865254479501037e-10
2.6772242505980115,5.800404283379198e-10
2.6694154808726402,5.754236556069552e-10
2.661796000190538,5.709518236624621e-10
2.6586468298707064,5.69133286774778e-10
2.6509560295026495,5.647281768233408e-10
2.6402237294134183,5.583959682158435e-10
2.635691840470713,5.558443836828545e-10
2.6259436434451735,5.51159001892349e-10
2.6211965944917344,5.488658141041928e-10
2.6098436835229375,5.434319116736793e-10
2.6020937021801727,5.397880786541782e-10
2.586513346290983,5.324053551377897e-10
2.584249018735109,5.313301846596675e-10
2.583161105423604,5.30818562928748e-10
2.5799746036321825,5.293535279990434e-10
2.56435392031312,5.220145793353716e-10
2.55890536011663,5.194651353071519e-10
2.5476751213762507,5.142898169242998e-10
2.545665288986719,5.133809385975324e-10
2.5338102460569427,5.081057204197109e-10
2.52695477006953,5.050974494790729e-10
2.510156811564977,4.977487854770615e-10
2.508961239086437,4.972302342582507e-10
2.5083576310440505,4.969790099807524e-10
2.5064511839440575,4.961947519269794e-10
2.4899153306525643,4.889678909763124e-10
2.484355925639699,4.866028963848878e-10
2.4732624246432087,4.818310667867057e-10
2.471584836724641,4.811163003291725e-10
2.459991915821084,4.761575755807163e-10
2.453383386870813,4.733982627239645e-10
2.4372152311377557,4.668055870241846e-10
2.4358668431725885,4.662603594021465e-10
2.435175351088811,4.659806251701904e-10
2.4330552186110346,4.651130460404177e-10
2.4171024481070122,4.5867921395523426e-10
2.4119783644439967,4.566409741838003e-10
2.4020054872390073,4.526345150938051e-10
2.399157902407538,4.514993383979848e-10
2.388324159365282,4.4717767024509234e-10
2.3813523066056415,4.4442483324721734e-10
2.3673044083319983,4.38893642126841e-10
2.364901930421244,4.3795197866658263e-10
2.3636788568544675,4.3746117792251484e-10
2.3599907165358864,4.3597830238404454e-10
2.346334156946229,4.3036868176579693e-10
2.3417094026283483,4.284697793429116e-10
2.3323469223629463,4.2466353811581017e-10
2.3291335449354045,4.2337111590700097e-10
2.318744323313761,4.1916640093678747e-10
2.312064590992349,4.164807492268705e-10
2.297839299355592,4.108169484611283e-10
2.2960044618965503,4.1009093249029293e-10
2.295098637101052,4.0972840579089646e-10
2.292482591088792,4.086685629823334e-10
2.278273624744446,4.030664398411975e-10
2.2734876096710273,4.011739429331925e-10
2.263597121860377,3.9713950016403667e-10
2.2617079971310505,3.9635627194026343e-10
2.251191579592221,3.9210391120582535e-10
2.245311441805918,3.8970241857887355e-10
2.2292804797487893,3.832570992144973e-10
2.2291142060634477,3.8320262817176785e-10
2.2290337555067032,3.8316026715760477e-10
2.228792421257209,3.8306950932372085e-10
2.212874076476467,3.767279424738099e-10
2.2072533447259723,3.744975016888981e-10
2.1979259806745968,3.70877735641013e-10
2.196831549205695,3.7040360080491704e-10
2.195505215960616,3.698833367023247e-10
2.1856068722507263,3.6601324858991753e-10
2.1809210668596446,3.641681750790139e-10
2.1682589929604625,3.590739838235609e-10
2.1652768965868865,3.5787377502379916e-10
2.16417268613207,3.574219093263582e-10
2.161737082682735,3.564298120913756e-10
2.1497708076257043,3.5166039949816945e-10
2.1429487044835773,3.4895506941154864e-10
2.134365490632765,3.455658149450307e-10
2.1281708226108584,3.431294790848664e-10
2.1219328658358276,3.406780366359673e-10
2.1190552725477803,3.3959294407514244e-10
2.11133979230851,3.3658154126269785e-10
2.1038852503351757,3.3369168883255233e-10
2.1011231289361705,3.3262884846650704e-10
2.095125760895728,3.3032545377228303e-10
2.0888288541243103,3.278878039220874e-10
2.0835633046837856,3.258693183449936e-10
2.0805174725504663,3.24616002214601e-10
2.0740049613213594,3.2205768443078895e-10
2.061973547582717,3.173720664087857e-10
2.0601138952667615,3.1664612199235996e-10
2.0592862699557597,3.1633122934199854e-10
2.0571023423725467,3.1549802832398847e-10
2.044672033439379,3.1070659541590536e-10
2.039910415300895,3.088914286509797e-10
2.030161510482435,3.051819721870424e-10
2.029253146994622,3.0483514884900104e-10
2.0199050703040067,3.0131237228888075e-10
2.0157539650558935,2.9975558138153826e-10
2.0048755464046093,2.957351894667177e-10
2.0014486663541295,2.944256763447139e-10
2.000095917171939,2.9392856187959923e-10
1.9973066563451285,2.930386467802257e-10
1.9867524546665003,2.8966134361081246e-10
1.980481031856502,2.876554911266648e-10
1.9721167025027968,2.850191157124743e-10
1.9680069836576595,2.837212046113828e-10
1.961058509178594,2.8154297839750463e-10
1.9575934772696817,2.804468568807387e-10
1.9470664116006668,2.7721029748909393e-10
1.9431538279419163,2.759697369890477e-10
1.941826462643151,2.7555164933089655e-10
1.939155788304355,2.7471737323391206e-10
1.9288438935095507,2.7154264772492683e-10
1.9227830242559154,2.696707816081837e-10
1.9146301278844564,2.6719501702293113e-10
1.9107367494147598,2.660076784781355e-10
1.9039263443419958,2.6390708842689566e-10
1.9005759792180754,2.628671734532042e-10
1.8906329998361207,2.5984580723235354e-10
1.8866431513133877,2.5859309302800413e-10
1.8852545913662124,2.581605561353852e-10
1.8824216549356292,2.572935881320629e-10
1.872821475172742,2.5438047190351586e-10
1.8667659517552002,2.525471304272492e-10
1.859074218689971,2.5026018963980414e-10
1.8545841693001375,2.489160602311205e-10
1.8484586297212573,2.471181984684652e-10
1.845418992012732,2.462144217037973e-10
1.8364007322244675,2.435690309768879e-10
1.8318552501062153,2.4224170996159013e-10
1.8303308470879234,2.418059706756036e-10
1.827263862641332,2.409025985465375e-10
1.8183737002327118,2.3834815502813894e-10
1.8123808431172639,2.367350216474065e-10
1.8047394922880002,2.3473209561653473e-10
1.8010609080901436,2.337554540787788e-10
1.7946068743388537,2.3205976384254557e-10
1.7912075139489294,2.3117089664916797e-10
1.7801568833942336,2.2831183417160495e-10
1.7777684437047727,2.2767091690669874e-10
1.7770072143804332,2.2747324476017162e-10
1.7755669031692638,2.2709993367283073e-10
1.764468413047247,2.2419205945754364e-10
1.759580153800228,2.229175183750575e-10
1.7512763114604493,2.2075938664737054e-10
1.7502737278542169,2.205015403002614e-10
1.7423239999209124,2.1843233276624068e-10
1.738187023264425,2.1737583949721766e-10
1.7252868904581231,2.1405091237714332e-10
1.7252370766651992,2.14030630339099e-10
1.7252121703080883,2.14030630339099e-10
1.7251042469154578,2.140103502228437e-10
1.7123753702394224,2.107036218054745e-10
1.708317724393046,2.0966133054124918e-10
1.7004685450100707,2.0763809430726158e-10
1.6996340850522524,2.0742833010212463e-10
1.6915642997404539,2.0536825332301253e-10
1.6869876040482323,2.0420395131451135e-10
1.676281454598232,2.016338226259544e-10
1.6749751754598485,2.0133471137503744e-10
1.6742499047317234,2.0117579046707845e-10
1.671689795724591,2.0060471314894538e-10
1.6614724559758214,1.9829898476114592e-10
1.658548740262029,1.9762992576477585e-10
1.6532735520462154,1.9645364045153663e-10
1.648792521453755,1.9546331726101155e-10
1.6431687720672299,1.9422016099099917e-10
1.6422833986596612,1.9399637614027614e-10
1.6362290414804592,1.926529862762865e-10
1.6306873794404906,1.9148817764225565e-10
1.6261775708123132,1.9054394898057345e-10
1.6235972100747984,1.9000905376995795e-10
1.6142097070726382,1.8803880698137918e-10
1.6110822795058233,1.8738660854397596e-10
1.6102296923730028,1.87203216086257e-10
1.6087387504237687,1.8689894464934325e-10
1.5986561228317502,1.848061946680982e-10
1.594438214336256,1.8393848374647609e-10
1.587054995085822,1.8239665173331037e-10
1.58634107566614,1.822498010452614e-10
1.5788016028876528,1.806736102636106e-10
1.5741436210224506,1.797117396934356e-10
1.5655617997606486,1.7792693054179198e-10
1.5633183392548482,1.7746388496675263e-10
1.5620399532081302,1.7720902408897939e-10
1.5574314236997628,1.76260030863418e-10
1.550047998816419,1.7472736413152979e-10
1.5479869195600562,1.7430567578514116e-10
1.5443485352439321,1.7355851889524786e-10
1.538159210837202,1.7227229541979204e-10
1.532805854673978,1.7117933859336989e-10
1.5263652818269082,1.6984904007835316e-10
1.5233200784710728,1.6922251197371102e-10
1.5177736700711657,1.6809314632100168e-10
1.5146836501883671,1.6744400389522034e-10
1.5038293853093372,1.652190788630646e-10
1.5030950374072747,1.6507041568024712e-10
1.5028889056868,1.6502610344034508e-10
1.5025273393875072,1.649583547869304e-10
1.4914515372785793,1.6283330644575512e-10
1.4881501157748787,1.622300954081439e-10
1.4825605263968795,1.611881211777428e-10
1.4798234572816074,1.6067979653406298e-10
1.4735558687677892,1.5951168674145917e-10
1.468303699746216,1.5854224755265042e-10
1.4628872072874728,1.5752395969450594e-10
1.4591047471372638,1.568289215994961e-10
1.4569016616380501,1.5641337162346184e-10
1.448610421220398,1.5486973357852234e-10
1.445588165480056,1.5431308184586277e-10
1.4447953472566948,1.5416205795169126e-10
1.4434193804793378,1.539041980965593e-10
1.4343797798920064,1.5222897315695744e-10
1.4306262792648017,1.5153575763815234e-10
1.4241558002453076,1.5032962420425607e-10
1.423271996720925,1.5016352543613484e-10
1.4165961669306355,1.4893067646417917e-10
1.4122536298222994,1.481237624452606e-10
1.4050952140286883,1.468009737855135e-10
1.4027036475199062,1.4635651067400298e-10
1.4013340493606448,1.461024769421989e-10
1.3962922638712043,1.451686726722476e-10
1.3905122821396927,1.4409967041095478e-10
1.3889473716626206,1.4381320952193003e-10
1.386219685723596,1.4330761431808026e-10
1.3797873652965933,1.4211534083731517e-10
1.37532600322202,1.4129178849409083e-10
1.3691517575427221,1.401539095806303e-10
1.367535204789723,1.398554126057148e-10
1.3618382191648022,1.3883211402403628e-10
1.358526216304965,1.3826758146641525e-10
1.349430460142492,1.367042543171869e-10
1.3484827094326157,1.365359586237702e-10
1.3479247568676274,1.3644542369943022e-10
1.3456823028189047,1.360752875237377e-10
1.3373545415921146,1.3468130720615557e-10
1.335258176814815,1.3434141394615367e-10
1.3318057159423138,1.3378246437108201e-10
1.326809751231145,1.3297779583875488e-10
1.3221633368224637,1.322259880143953e-10
1.3191382484435767,1.3174448314249725e-10
1.3163100979675606,1.313207162426926e-10
1.3146388934192796,1.3107207861046042e-10
1.3091969175635723,1.3027959731132874e-10
1.3057521460718,1.297764833195959e-10
1.2980680886462852,1.2866020463489606e-10
1.2963576596195618,1.2841660431380377e-10
1.2952726450125758,1.2825446038898728e-10
1.2904323550718408,1.2755151324193203e-10
1.2848834317876274,1.2674628433014934e-10
1.2836443159229356,1.2656825813998693e-10
1.2817061561135685,1.2629271185886463e-10
1.2745714155869217,1.2525979967449063e-10
1.2710556516361535,1.2475439659587567e-10
1.265501743344017,1.2393746220939874e-10
1.2643756238361399,1.2376924516777782e-10
1.2585904440316937,1.2292381294229443e-10
1.2542734637446562,1.2228870236641303e-10
1.2494360608658734,1.2158388482898374e-10
1.2462474823732883,1.2112009035817606e-10
1.2442460307350212,1.2082968645772802e-10
1.2354516006189005,1.1956166932565703e-10
1.2342987631882365,1.193880779413913e-10
1.2340255677983272,1.1934660431298243e-10
1.2335862064368557,1.1928253704200944e-10
1.2244486969460988,1.1795249168012257e-10
1.2219235132014123,1.17576801563681e-10
1.2178729482439667,1.1698409667417805e-10
1.2147064637986684,1.1651576492377767e-10
1.209940143119056,1.1581129326409995e-10
1.2050388445450018,1.1509835602666046e-10
1.2023135564199936,1.1470095750350762e-10
1.1980742936155078,1.1407950185185646e-10
1.1954510444154025,1.1369639422526518e-10
1.1869529494317301,1.124623775902136e-10
1.1863248121697032,1.1236650826253395e-10
1.1859395288900227,1.123115090960347e-10
1.1842258227289133,1.1207231030512254e-10
1.1763989567006388,1.1100834029236463e-10
1.17469055756332,1.1077366639561115e-10
1.1720451845939113,1.1042607327673209e-10
1.1668817896837522,1.097532206878323e-10
1.1631703997699323,1.0925860634846368e-10
1.157463896910774,1.0851229213613016e-10
1.1574416173526494,1.0851229213613016e-10
1.1517632198452525,1.0776426789536517e-10
1.1480778168138126,1.0728539418563253e-10
1.1430585128196062,1.0662831050002458e-10
1.140467909818448,1.0629036762546462e-10
1.1387897702129857,1.060723681988664e-10
1.1293268480848244,1.0505208573925709e-10
1.1292888069305331,1.0504876762259081e-10
1.129283372584526,1.0504876762259081e-10
1.1292725039709646,1.0504544961072873e-10
1.119770112360817,1.0409421043868246e-10
1.118208521797772,1.0393979314354838e-10
1.1160340087601814,1.0371842426472375e-10
1.1103263070660345,1.0315158521389224e-10
1.1072422817662335,1.0284252584035304e-10
1.102956016450959,1.0241139776470977e-10
1.1009621479927945,1.022174959327494e-10
1.0963835873472396,1.0175684212317742e-10
1.0916900969165517,1.0128386711638841e-10
1.090026030207474,1.0111764804916106e-10
1.0856313838439442,1.0066989988897316e-10
1.0825065513483207,1.0035242617802944e-10
1.0771983763999622,9.981028789117131e-11
1.074984626902883,9.959142237302366e-11
1.0734028425649478,9.942798081217065e-11
1.0645344878940197,9.852761063434297e-11
1.064442282412539,9.851516307118305e-11
1.0643833775361473,9.850738414279228e-11
1.0639916150111575,9.847160898282826e-11
1.0554346212525063,9.759839390162481e-11
1.054003326402896,9.745361274682006e-11
1.0520068238764346,9.725373732844207e-11
1.0465535468840232,9.670237303589208e-11
1.0436667449459858,9.640045621267713e-11
1.039594069767134,9.597662720559114e-11
1.0377821608128281,9.579339584836118e-11
1.0334315340574016,9.534362209512726e-11
1.0290867656594542,9.489146418031386e-11
1.027312944224686,9.470731306778029e-11
1.0232966995987853,9.429241718747769e-11
1.020454406400217,9.400396276567448e-11
1.0151720151345645,9.34518341060235e-11
1.0132612571812658,9.325869341245571e-11
1.0119066322129702,9.311740868625185e-11
1.0040197327895084,9.230333417400683e-11
1.003425629243204,9.224212923239251e-11
1.003324232069846,9.22319323551904e-11
1.0031842242464615,9.221882374079387e-11
0.9948912216605458,9.14501483640296e-11
0.9934846590887283,9.132602549480707e-11
0.9916218788947541,9.117326861015786e-11
0.9863439611842038,9.071652930432235e-11
0.9837415825275676,9.049616412958872e-11
0.9802800631940585,9.019225527574076e-11
0.9778724843654092,8.998737420539375e-11
0.9740940560486432,8.965685056238935e-11
0.9694830977134974,8.925844105736266e-11
0.9690609761247004,8.921757039443726e-11
0.9645411425949428,8.882391846816096e-11
0.9611726234867087,8.85312179425047e-11
0.9579679840413593,8.825202491335127e-11
0.9550819142991464,8.799594501975433e-11
0.9529356800570236,8.780853302766811e-11
0.9469814681739435,8.72845217029357e-11
0.945715452393502,8.717431278563664e-11
0.9447738710367126,8.708899659577722e-11
0.9383534845483247,8.652144092744641e-11
0.936684220933284,8.637399220566337e-11
0.9364408471205888,8.635216933181559e-11
0.9361119423007042,8.63221718827828e-11
0.9286727765307692,8.565944659268218e-11
0.9272571976449512,8.552967454660428e-11
0.9253582716249247,8.53650395473316e-11
0.9207342846207962,8.494812898791781e-11
0.9181636119656024,8.472036570856338e-11
0.914714929256576,8.44105208711697e-11
0.9128636526238058,8.424271817750053e-11
0.9091592068293839,8.39107632285841e-11
0.905064655796905,8.354052636342199e-11
0.9041809517523738,8.345876650572476e-11
0.9002431076451771,8.310102260475384e-11
0.8973409255591198,8.283895429974265e-11
0.8937596829844668,8.251253082436413e-11
0.8914144483989542,8.229649654150918e-11
0.8896852495213607,8.214197675143918e-11
0.883450023351748,8.15718701270633e-11
0.8826723715696629,8.150104647122156e-11
0.8820991328092178,8.144829066315351e-11
0.8783504429030634,8.110172625020581e-11
0.8745798052803451,8.07591872917807e-11
0.8740160280459363,8.070181344420264e-11
0.8732403771552197,8.063047179837405e-11
0.8671329207674057,8.007085577844427e-11
0.8654445770436187,7.991672839104686e-11
0.8631570267037594,7.970497284092936e-11
0.8597535823849874,7.938588357574339e-11
0.8569571860241019,7.917303381209221e-11
0.85339336645591,7.891338201219034e-11
0.852227861358323,7.883366059638905e-11
0.8485530306134605,7.856519493759608e-11
0.8447598852361913,7.829022456759067e-11
0.8439025738752068,7.82284272079225e-11
0.8402312945223815,7.796448519602277e-11
0.8373492911254817,7.775544649166325e-11
0.8345173306781181,7.754941769546514e-11
0.8319911694668787,7.736592476893757e-11
0.8299997117769656,7.722676057287963e-11
0.8252364630245993,7.687630187069314e-11
0.8238318550897842,7.677317216500965e-11
0.8227265184093525,7.66944016317218e-11
0.816153064410561,7.626682169467197e-11
0.815752558883011,7.624755245417392e-11
0.8154150304672289,7.622828808215762e-11
0.8111803647744336,7.602150322807216e-11
0.8080051947463169,7.586558463937007e-11
0.8077524961105771,7.585360415571516e-11
0.8074551904929569,7.583803235534704e-11
0.8006665466056307,7.550222213710603e-11
0.7998308897323841,7.546169127028723e-11
0.7988538554427725,7.541403575249818e-11
0.7933983691797247,7.513822663093093e-11
0.791986970328745,7.506231902622466e-11
0.7903194242430026,7.497701462944383e-11
0.7862226535424103,7.4759454681699e-11
0.7842199760256497,7.464855367453447e-11
0.7818460695629699,7.452369243765115e-11
0.7791118370741739,7.438259212261317e-11
0.7765291524207658,7.424175896152653e-11
0.7734691444727089,7.407662068591983e-11
0.772076478878451,7.400061685865713e-11
0.7689137525101638,7.382085734857075e-11
0.765137786990762,7.359967773335752e-11
0.7651304230401984,7.359967773335752e-11
0.7613730366157607,7.338379645543368e-11
0.7582596290425174,7.32020669857221e-11
0.756879779701606,7.312465071745195e-11
0.7539062723134764,7.294932320799932e-11
0.7514451099103684,7.28054544444586e-11
0.7486928852364101,7.263662777107535e-11
0.7465127343620932,7.249223082063349e-11
0.7447402134325953,7.238012056625081e-11
0.7405232711513628,7.210629652015148e-11
0.7391917046328141,7.201752694064467e-11
0.738112902037276,7.194590822070542e-11
0.7324339909637494,7.157418523141141e-11
0.7319424720395111,7.154367177380633e-11
0.7315410455861531,7.151655962124836e-11
0.7276158972466688,7.125950605818508e-11
0.7250085131555972,7.110212420626493e-11
0.7247643324696588,7.108640515116853e-11
0.724469681052849,7.106956716272581e-11
0.7184893660292694,7.071912295716389e-11
0.7176565887159428,7.067223017880037e-11
0.716655771008741,7.060975483902602e-11
0.7120305511233692,7.033707395617491e-11
0.7106185504085426,7.025381092506444e-11
0.7089312566819795,7.015624129844615e-11
0.705631495143781,6.995598409361382e-11
0.7036495339480748,6.984007487777151e-11
0.7012798773033514,6.96990357503965e-11
0.6992815350664222,6.958245334678645e-11
0.6967488624391966,6.942658245030282e-11
0.6937177545933806,6.924918425669869e-11
0.6929970551640887,6.920545205726545e-11
0.6899158656248588,6.902207820217236e-11
0.6894379497379713,6.899156316673283e-11
0.6867690542128817,6.883049338000467e-11
0.6862305720604412,6.879788996478575e-11
0.6831498798212047,6.861342877396516e-11
0.6807509748577826,6.835601370089693e-11
0.6781809752905663,6.792555695607712e-11
0.6764502478531068,6.76408049586113e-11
0.6754240079665522,6.746477328463754e-11
0.6713782082925367,6.679580103043022e-11
0.6701322756527682,6.65893594951186e-11
0.6698163189903357,6.65388997201163e-11
0.6692862980225446,6.644963765914775e-11
0.6648852019290746,6.572322899386647e-11
0.6632474488843556,6.545494511298008e-11
0.660506689578806,6.500476122288626e-11
0.6596760378091947,6.487041324793315e-11
0.6567429995057389,6.459438809747391e-11
0.6539567344815442,6.438356447218375e-11
0.6529583350543146,6.430938027683087e-11
0.650302339082195,6.410657350313295e-11
0.6482090293379487,6.395084823035218e-11
0.6457090575891955,6.37592408105502e-11
0.6439248420372066,6.362244286780854e-11
0.6425164793288652,6.351803074957765e-11
0.6385402630905155,6.321380755401771e-11
0.6376098889292677,6.314196837036911e-11
0.6368754534864232,6.30871462235912e-11
0.6353066943833058,6.261170308497139e-11
0.6328960753683072,6.161896671135334e-11
0.6313568663917187,6.099158349444435e-11
0.6291065323219334,6.008143973746432e-11
0.6255985293001637,5.868969759663e-11
0.6253366703804915,5.858412780466652e-11
0.6251651670731692,5.851570170699356e-11
0.6243804630438169,5.820785266700224e-11
0.6215908945902702,5.712322878750013e-11
0.6190341895785073,5.614209870949778e-11
0.6178690427034291,5.5697880233574553e-11
0.6160387153521737,5.5013367058700334e-11
0.6141620871469509,5.431238582035209e-11
0.6129633384104866,5.316667498507312e-11
0.6121394515285395,5.20245881055383e-11
0.6117845933540879,5.1567322359300705e-11
0.6110019830671175,5.0493870213683154e-11
0.6103907146881128,4.969012834658161e-11
0.6093400594914294,4.833713836258408e-11
0.6086542959383521,4.7456673466926255e-11
0.6069520239118853,4.536370937032346e-11
0.6069198962690802,4.532503876410318e-11
0.6069052933572666,4.5309293525150225e-11
0.6068760885876995,4.527209924540189e-11
0.6051918950327771,4.328846808492043e-11
0.6044569853504311,4.247111329489303e-11
0.603968510228511,4.190346609088499e-11
0.6034630057090637,4.134601759273956e-11
0.6027737038967382,4.058840919992282e-11
0.6020417307244385,3.981071705535181e-11
0.6017433989560941,3.948885822008288e-11
0.6009996622082339,3.870716250507125e-11
0.6000301360630412,3.771452215775776e-11
0.5996361268346432,3.731696839347627e-11
0.5986961696158222,3.638812766319833e-11
0.5983159926571888,3.602218710020844e-11
0.597228639083465,3.497942848262522e-11
0.5966139236660797,3.440307416506625e-11
0.5951056751511034,3.302737915374558e-11
0.5949138338140986,3.285777439126013e-11
0.5948365421021615,3.278831238565992e-11
0.5946533722280513,3.262508736112411e-11
0.5932200158215695,3.138138999682604e-11
0.592456877267198,3.0734448095217564e-11
0.5915253273097356,2.9973236760146834e-11
0.5907259913092225,2.927985370320847e-11
0.5902230495341558,2.8809238139708138e-11
0.5900242641868436,2.8568200937374744e-11
0.5893148628932348,2.7892340023774467e-11
0.5892694902619509,2.7817554964840592e-11
0.5886289748787952,2.7198083695026915e-11
0.588408073695154,2.7004623594316698e-11
0.5880372595052179,2.663612057167012e-11
0.5872369851507324,2.58936766197944e-11
0.5865760968418765,2.5313050346360773e-11
0.585848287199809,2.4651828283515634e-11
0.5853635825347688,2.4231860457381507e-11
0.5847723356293244,2.3727437473790432e-11
0.5844628732416307,2.3469538399014798e-11
0.5834905406765143,2.2670967694161e-11
0.5830807355102119,2.2343950571453396e-11
0.5829544837352268,2.2241147604463747e-11
0.5826992581196891,2.2043920142537372e-11
0.5817018662579317,2.127234539732192e-11
0.5811143178716333,2.0847959132121177e-11
0.5803262577554916,2.0252133894401582e-11
0.5800540388610077,2.0055116665959862e-11
0.5793273519992104,1.954204017275466e-11
0.5789539022918703,1.9280851246821538e-11
0.5784136628127545,1.8920084821870182e-11
0.577768265089754,1.847714550793346e-11
0.5775847921742819,1.8356150850099828e-11
0.5775236474839609,1.8317924152353293e-11
0.5774152705316048,1.8244590547821845e-11
0.5762189197281331,1.74757986417829e-11
0.5757310997407243,1.717048692383626e-11
0.5748562772969783,1.663766770398273e-11
0.5747898894247936,1.659777635663229e-11
0.5739109735777829,1.6094925317384063e-11
0.5734968572424787,1.5839733124775133e-11
0.572173691933819,1.5099131871974886e-11
0.5721461584767735,1.508673703437962e-11
0.5721406519443584,1.50800671060428e-11
0.572102107701333,1.5059123665430237e-11
0.5707876538003617,1.435683430594299e-11
0.5703648122208685,1.4141701800795642e-11
0.5695762544939665,1.373688750862605e-11
0.569437855226211,1.3668287404749466e-11
0.5692899011357906,1.359423192482184e-11
0.5685944844404871,1.325586370113659e-11
0.5678698567249928,1.304609815876627e-11
0.566491518161633,1.300454507187029e-11
0.5644289225461656,1.2942259068795529e-11
0.563224242656424,1.2906335195352012e-11
0.5609359515182994,1.2836813467888613e-11
0.5586220096706864,1.2767262956258689e-11
0.5575115447406033,1.2733634608799866e-11
0.55543486816331,1.2671045137972833e-11
0.55405205013435,1.2630487156801991e-11
0.5506815930747576,1.2528768825144896e-11
0.5499877337805635,1.2508207601260844e-11
0.549524765213308,1.2494387318765203e-11
0.5450502108673057,1.2493992678006712e-11
0.544594019293982,1.2630487156801991e-11
0.5439654160002454,1.283397554173076e-11
0.5432525689042805,1.3043007975072877e-11
0.5425798195618692,1.325586370113659e-11
0.5414660670399474,1.361700847489727e-11
0.5405496578317233,1.3920556351895375e-11
0.539897143028115,1.4141701800795642e-11
0.5396841416044289,1.4216045240801301e-11
0.539253200816122,1.436409172578018e-11
0.5379041975912278,1.4840731560229317e-11
0.5372432421424117,1.508673703437962e-11
0.5361352840014261,1.549384680401433e-11
0.53518668856752,1.5855250420087124e-11
0.5345818061902333,1.6094925317384063e-11
0.5343709017850785,1.6175449073558286e-11
0.5339647595972896,1.6335643158111287e-11
0.5326084814837637,1.6886236185986457e-11
0.5319540332018972,1.717048692383626e-11
0.5308569830103197,1.762937059404893e-11
0.5298782020059692,1.80585451746094e-11
0.5293391772092357,1.8317924152353293e-11
0.5291099712985425,1.8404918407289266e-11
0.5287281819751548,1.857780098342113e-11
0.5273649021865652,1.921367362327756e-11
0.5266864819068254,1.954204017275466e-11
0.5256306473760625,2.0059234577031424e-11
0.5246211077317298,2.056834143176349e-11
0.5240874307756167,2.0847959132121177e-11
0.5239008351546471,2.094167649000276e-11
0.5235429593248601,2.112837478239185e-11
0.5218476403662617,2.177266195736264e-11
0.5199175688998287,2.2241147604463747e-11
0.5191125663780197,2.2440139665040745e-11
0.5184085880096174,2.2614467590053603e-11
0.5163918272820768,2.312808002864589e-11
0.514095856347556,2.3727437473790432e-11
0.5136853479473256,2.383711036543913e-11
0.5133245693317912,2.3931411101712004e-11
0.5109930536364311,2.456787722415173e-11
0.5083491167083658,2.5313050346360773e-11
0.508314870003767,2.53210469745574e-11
0.5082904094844595,2.5327446095947016e-11
0.50797252982529,2.5417203785663547e-11
0.5056507230933619,2.609730641512018e-11
0.5033056195034512,2.6802378710217604e-11
0.5030005393368583,2.6897363399270865e-11
0.5026472650242462,2.7004623594316698e-11
0.5003582259606333,2.7719758507756988e-11
0.49937319377916584,2.8431371925549127e-11
0.4989816450473065,2.8809238139708138e-11
0.49880998896036505,2.8976701912442104e-11
0.4983697152198536,2.9411474765530877e-11
0.4974352737805267,3.035816763116796e-11
0.4971050451093024,3.0734448095217564e-11
0.4962493866165147,3.160670424610616e-11
0.4960679280527587,3.1807001742865006e-11
0.49591994521141936,3.196108583851679e-11
0.4951949905621973,3.278831238565992e-11
0.49469719908175863,3.332182335896617e-11
0.4934822172129848,3.473171665550761e-11
0.49333500571930833,3.491099430480711e-11
0.49329227512462026,3.497942848262522e-11
0.4931451202928814,3.513667071419448e-11
0.49197301206049976,3.657422246181861e-11
0.4913968705970996,3.731696839347627e-11
0.4899470888717251,3.7975710261192127e-11
0.4886426507638283,3.803332986103223e-11
0.48710370757663873,3.809765473749012e-11
0.4855158710577682,3.816811580856207e-11
0.4838505458089239,3.8241726829557196e-11
0.4818847374642241,3.832758403343574e-11
0.480439899381366,3.800450914129673e-11
0.47910543689471097,3.769010946395222e-11
0.47860309069560764,3.757480985601578e-11
0.4775034588447315,3.731696839347627e-11
0.47537124218372406,3.6822860902320024e-11
0.47440686313231867,3.659733438643247e-11
0.4724748756734302,3.6129298735347594e-11
0.47224302112605754,3.604495018351268e-11
0.47113873038776355,3.5661616220829486e-11
0.46975436815280086,3.5186648341743577e-11
0.46950351409578794,3.5102282982603584e-11
0.46913990075880546,3.497942848262522e-11
0.4667754066412523,3.418642848145927e-11
0.4651475000628088,3.364651291377687e-11
0.46406761753512304,3.3292366353987333e-11
0.46245137993116064,3.278831238565992e-11
0.4613233640149808,3.244576079395551e-11
0.46058581140069954,3.2223624194340874e-11
0.4585820976641307,3.1626677104492854e-11
0.45705754092948664,3.117441689493844e-11
0.4560688590930741,3.0885287390930284e-11
0.4558626046281945,3.0825836688070636e-11
0.4555424368834283,3.0734448095217564e-11
0.4531123563532352,3.0065685500001654e-11
0.4519092492631725,2.975627722460627e-11
0.45159620441174175,2.966946520184837e-11
0.45033318927957466,2.93437366833184e-11
0.4482360089021271,2.8809238139708138e-11
0.4475742989533198,2.8637766721206162e-11
0.44716741293110723,2.8535734672280737e-11
0.44552426847882975,2.8121456428859275e-11
0.44483338081472656,2.7948340034990563e-11
0.44278205448597513,2.7443159158430965e-11
0.44210499288203986,2.7277233732873432e-11
0.44097885676105275,2.7004623594316698e-11
0.4393965112131616,2.6620980990669886e-11
0.438439703129768,2.639241614923462e-11
0.4367004196041342,2.5982158077236554e-11
0.43588790056284865,2.5989545165566466e-11
0.43413993709315485,2.6316664799989408e-11
0.43298616389468975,2.6537028770260715e-11
0.43057797681164206,2.7004623594316698e-11
0.4298823387430847,2.7139729143612834e-11
0.42926424877445735,2.7260868678726568e-11
0.4272220098785621,2.7658974199476744e-11
0.42566649454222255,2.7627541222981056e-11
0.42426055298244675,2.759745147468895e-11
0.42282262884965127,2.756913603703342e-11
0.4214919950087825,2.7541284606753178e-11
0.4202868813612103,2.7516937687046757e-11
0.4184675442141421,2.7479155693900796e-11
0.41735843467675504,2.7450094578871855e-11
0.416389498841716,2.7419765048558188e-11
0.4140676415009906,2.7350566185522506e-11
0.41326541205652484,2.732638786383737e-11
0.4125679625750344,2.73056806007898e-11
0.4097071001577512,2.7219569104108694e-11
0.409212529595874,2.720495718012823e-11
0.4089231579554613,2.7130301208587592e-11
0.40861432714663815,2.7004623594316698e-11
0.4068817394219212,2.628011579112336e-11
0.40519939364136826,2.5594440664242795e-11
0.4048524602444694,2.5455768676250493e-11
0.40448246583210146,2.5313050346360773e-11
0.4028313633718332,2.4658058280317233e-11
0.4012256144001216,2.4037470891025222e-11
0.40082035618116685,2.3885345828224058e-11
0.4003923854263299,2.3727437473790432e-11
0.39882418632447564,2.3135021030783877e-11
0.3972908059019362,2.2574502187691753e-11
0.3968341385087239,2.2409682256596836e-11
0.3963436634455551,2.2241147604463747e-11
0.3948530705517428,2.170742742654228e-11
0.3933945859618132,2.120057269470767e-11
0.39288378307434974,2.1026515085340533e-11
0.3923358816781168,2.0847959132121177e-11
0.39092243600781196,2.0367604726468733e-11
0.3895365761428314,1.9912150049743536e-11
0.3889708803413806,1.9729342718465736e-11
0.38836862614126266,1.954204017275466e-11
0.3870337233719448,1.9109572957319207e-11
0.3857164017193901,1.870025664918925e-11
0.38510158086393237,1.851073403778885e-11
0.384441487038387,1.8317924152353293e-11
0.3831800059291131,1.7930377827245402e-11
0.3819336916408122,1.7562121512340044e-11
0.3812689366136099,1.7367942891724128e-11
0.38058519210239633,1.717048692383626e-11
0.37936557296612755,1.682368163696064e-11
0.3781880784953043,1.649325556329023e-11
0.3774717112550126,1.62964759607008e-11
0.3767385711292744,1.6094925317384063e-11
0.3755873040448761,1.578579139028916e-11
0.3744791984742702,1.5489932196670433e-11
0.3737168001063201,1.528990278928104e-11
0.37293262304422736,1.508673703437962e-11
0.3718520328046795,1.4810527415822123e-11
0.3708066913369747,1.4547183846678904e-11
0.3699956800480948,1.4346408188502093e-11
0.36916157103818237,1.4141701800795642e-11
0.3681503661484456,1.3896394181981817e-11
0.3671702003755534,1.3661813052646016e-11
0.36631249278284167,1.346092125457034e-11
0.3654286514784655,1.325586370113659e-11
0.36448379441424594,1.3039094793143182e-11
0.3635693723803662,1.279916075280525e-11
0.3631602040995186,1.2517693200570367e-11
0.3630239170284422,1.2425514618984852e-11
0.36276022456638773,1.2245122544658444e-11
0.3622735085211928,1.1923374880481601e-11
0.36184490280512194,1.1647178714833107e-11
0.36178222256519377,1.1605315000972449e-11
0.36138897790763946,1.1357273761432531e-11
0.36099963507859467,1.1117342784345066e-11
0.36067145335350276,1.0917597876227389e-11
0.36050487214858,1.0818391843452051e-11
0.36000385760568987,1.0522825587785277e-11
0.35962465985524344,1.030475339877684e-11
0.3594775902659122,1.0233718079315333e-11
0.3592510478417107,1.0094069547204917e-11
0.35874573351859496,9.815656632016552e-12
0.35831699075752305,9.592676604708852e-12
0.35786981635569187,9.349626312640901e-12
0.3575074894924877,9.164402466045316e-12
0.3571601383289388,8.991790054146704e-12
0.35699603784087447,8.905722302968154e-12
0.3564733097357482,8.65051767579335e-12
0.35612010842722147,8.483563961210212e-12
0.3560070208824406,8.428543117794966e-12
0.3557758172898805,8.320883654060038e-12
0.3552506020167427,8.080779086952171e-12
0.3548439654667151,7.900578045165461e-12
0.35472104109596403,7.8436379140764e-12
0.3544514396277625,7.687399050814703e-12
0.3543491130128859,7.596641086661725e-12
0.35412409843133935,7.405684775577239e-12
0.35396054121476345,7.271708303738265e-12
0.35366598818315637,7.031163631252107e-12
0.3535485758833414,6.941791686847152e-12
0.3534703226727565,6.878495744155742e-12
0.35298587893507594,6.5079846464499534e-12
0.35298418030192735,6.506956923483712e-12
0.35298078306015246,6.506545879741278e-12
0.3529773858510739,6.501615379679059e-12
0.3524919214366665,6.154708945069555e-12
0.35240711862850005,6.09936026808416e-12
0.3523062298711145,6.023639541272223e-12
0.35200373686331576,5.821897347479465e-12
0.3518445452392116,5.717295521908307e-12
0.3516287354749961,5.575429005250933e-12
0.3515204573403293,5.506647456340946e-12
0.3512693466513078,5.35916336273414e-12
0.35103361819862267,5.208879332183226e-12
0.35094832181322566,5.16016169655678e-12
0.35071534034992896,5.023464650098335e-12
0.3505474533060101,4.927212811853858e-12
0.35027343871098093,4.776201331046304e-12
0.35013524805357843,4.708794149897492e-12
0.3500619617286886,4.66077721234542e-12
0.349599853427171,4.420810915656055e-12
0.3495830304017801,4.4138346520811705e-12
0.3495771425341485,4.408748932227515e-12
0.3495157463952016,4.378011711857589e-12
0.34909299479117156,4.170348905743133e-12
0.34900481097553937,4.137351456813353e-12
0.34892756346605597,4.091864600628649e-12
0.3486095175698291,3.9448401945732554e-12
0.3484543761985364,3.878187206021506e-12
0.34825489046187086,3.7872750911536e-12
0.34812670994148065,3.731525709824897e-12
0.34787802359570835,3.6352570386981605e-12
0.3477976781281185,3.592565885002497e-12
0.34764457097877166,3.529746057201327e-12
0.34758435057784914,3.505413923370666e-12
0.34732936593736013,3.4075440496750575e-12
0.34716309975563203,3.3388774986928763e-12
0.34691593648315366,3.2445810095142864e-12
0.3467548741307696,3.1940950328602178e-12
0.346682295347274,3.1583300244881573e-12
0.3462446422490514,3.002919171045497e-12
0.34622131627563607,2.9940164911192268e-12
0.346202156830191,2.9875455291451737e-12
0.34608805514168667,2.948034516017224e-12
0.345722683282155,2.825996086384855e-12
0.3456636274979678,2.8064708960981454e-12
0.34557880444965877,2.779476184116938e-12
0.34509106054217825,2.6809616329501387e-12
0.3447715342404927,2.6306731823316067e-12
0.3442642207409511,2.5529080765554546e-12
0.34414992970010516,2.5354698934777954e-12
0.34367164456990223,2.465887460960406e-12
0.34344101475327143,2.4308940919496383e-12
0.34269397916144795,2.3250434888435933e-12
0.34261812846950135,2.3147847713733347e-12
0.3425950468087878,2.3114239393022687e-12
0.3425497123593714,2.3050445150603027e-12
0.3420349693830791,2.2378593332272078e-12
0.34179968102681424,2.204116869795909e-12
0.3415086741288244,2.1666360333811606e-12
0.3410094437521277,2.1023226580783967e-12
0.340979906954299,2.0988724925072584e-12
0.3409536541706554,2.0954279890748135e-12
0.34043311830782685,2.0309176613281442e-12
0.3401653729011796,1.998527174317467e-12
0.3393674822172911,1.9049638589804376e-12
0.33934625254440826,1.903700706323931e-12
0.3393495185614851,1.9030994994796238e-12
0.3393331887904307,1.900996770332606e-12
0.3388175725772445,1.84311251643619e-12
0.338538879186142,1.812113922459654e-12
0.3382636705999639,1.78445263846306e-12
0.3377895021479694,1.731839335117463e-12
0.3377269258371469,1.725587294058584e-12
0.3372105048761283,1.672674285584854e-12
0.3360053575975861,1.663086266362715e-12
0.3359794878153022,1.672674285584854e-12
0.33595281168842783,1.674392239473146e-12
0.33553031816650325,1.7679584382986073e-12
0.3354625102375913,1.78445263846306e-12
0.3353575964087817,1.8071981920599603e-12
0.33509142402482456,1.8699694407357133e-12
0.33495922300967945,1.903700706323931e-12
0.3347642411602615,1.950506965754098e-12
0.3346547144036837,1.9779289402668275e-12
0.33445025303018633,2.0309176613281442e-12
0.3342217905926521,2.092253464975414e-12
0.3341703276506776,2.1052464583416788e-12
0.33396776933366407,2.1666360333811606e-12
0.333784608084931,2.212976253866329e-12
0.33357907306174156,2.272190122625142e-12
0.33345388722274616,2.3114239393022687e-12
0.3333496015783824,2.34073866732466e-12
0.332988864591985,2.4523722307658056e-12
0.33295361348897506,2.465887460960406e-12
0.3329143609707577,2.4758381248889294e-12
0.33271016235316603,2.5419651003725454e-12
0.33248288856881414,2.618900498314845e-12
0.3324476910297964,2.6306731823316067e-12
0.3323997003904871,2.6468425763962768e-12
0.33204798065110747,2.7700107616156222e-12
0.3319680962637136,2.8064708960981454e-12
0.33180758677773325,2.856959791104869e-12
0.3316152374131904,2.9299326132808622e-12
0.3314572910851008,2.9940164911192268e-12
0.33122051263591656,3.0835134729066834e-12
0.3311822612921873,3.0990383371618543e-12
0.330960012801804,3.1940950328602178e-12
0.3307530337714995,3.278111344962852e-12
0.3306336816787286,3.3280851655062957e-12
0.3304571196155372,3.4075440496750575e-12
0.3303203886094825,3.4672579997461787e-12
0.33004868455189296,3.5919985569173177e-12
0.32998039648206773,3.6352570386981605e-12
0.3298898968647756,3.667434232706774e-12
0.3294647224727775,3.876839981927978e-12
0.3294726498122498,3.878187206021506e-12
0.3294591734486359,3.879106036316394e-12
0.3294472829973273,3.884930352265153e-12
0.32903217912944904,4.103254017053671e-12
0.32897834904379925,4.137351456813353e-12
0.32888021097020576,4.184401176109503e-12
0.3286017849503692,4.3400113109279054e-12
0.32847214424208976,4.4138346520811705e-12
0.32829831629597356,4.516219459144154e-12
0.32817353298471674,4.590574469277121e-12
0.3279785553612475,4.708794149897492e-12
0.32782786261803926,4.803054331534576e-12
0.3277450505529805,4.855526780855161e-12
0.3277174511802267,4.874350556921474e-12
0.32749989182297046,5.023464650098335e-12
0.32732027781630774,5.136095683369112e-12
0.3266908320808816,5.308285593766087e-12
0.32649280748188364,5.35916336273414e-12
0.32640404972141623,5.379429856373144e-12
0.32621640260904466,5.42644552893893e-12
0.3254355696057716,5.628067223723873e-12
0.32510060532423735,5.717295521908307e-12
0.3244676209761021,5.8879176459667175e-12
0.32424753799764733,5.949046755416348e-12
0.3237127819005205,6.09936026808416e-12
0.3235056648630944,6.160154616612134e-12
0.32301720737532896,6.3020522945563485e-12
0.32254345638239934,6.444571755672005e-12
0.32234639452949204,6.506956923483712e-12
0.321818645452262,6.667680448020333e-12
0.32158333605303696,6.7420140860652615e-12
0.3214293944672208,6.791493353594988e-12
0.32097187314436665,6.941791686847152e-12
0.3206291595752761,7.053630126753043e-12
0.3198493865607459,7.318946244188787e-12
0.3196762759054123,7.37941597827237e-12
0.3196016748838628,7.405684775577239e-12
0.3194117900553731,7.472533652302233e-12
0.3187277579047258,7.720492748564233e-12
0.3182526404411788,7.900578045165461e-12
0.3175336516081533,8.03598165240559e-12
0.31671263247723536,8.180679543234587e-12
0.3160115692048331,8.3068345002012e-12
0.3153484761251111,8.428543117794966e-12
0.31449980968575336,8.587358908640761e-12
0.3136066404542253,8.758014896863326e-12
0.31299452913726394,8.877216515675632e-12
0.31242570643489564,8.991790054146704e-12
0.3114942048008586,9.176423193561574e-12
0.31053110880903956,9.375206140247225e-12
0.31000405578374907,9.486313885124356e-12
0.30950470529660395,9.592676604708852e-12
0.3074857388175957,9.81054235830013e-12
0.30606557481874036,9.927436488836516e-12
0.3057711470187441,9.951296240213194e-12
0.30447023468539014,1.0060012247069583e-11
0.3038993540808051,1.0108427129697247e-11
0.30297359067469987,1.0186955211650725e-11
0.3024375331286209,1.0233718079315333e-11
0.3017484650647997,1.029271747558419e-11
0.3014843035187677,1.0315174195226127e-11
0.30088861335340283,1.036743646296516e-11
0.299418940504982,1.0435938284130984e-11
0.2985276552964731,1.0420950939568051e-11
0.29776150980812743,1.0407793031408974e-11
0.2962486554773446,1.038201891232787e-11
0.2956000028414818,1.0371039206502715e-11
0.29504007467265025,1.036187104813839e-11
0.293111937822364,1.0328378125791938e-11
0.292701061793106,1.0321366528501658e-11
0.2923470295509236,1.0315337103758585e-11
0.2903777973704929,1.0233718079315333e-11
0.29000633876594706,1.0193070573402217e-11
0.2898305505793757,1.0173771402600693e-11
0.2893386318499114,1.012024755057441e-11
0.28807020094646,9.984039381037256e-12
0.28698819038968904,9.868972210834232e-12
0.28614492366795546,9.779758173509833e-12
0.2843597459603543,9.592676604708852e-12
0.2842311459341367,9.579959305559385e-12
0.28417370514773216,9.573909375940538e-12
0.28400896921708085,9.55623525463062e-12
0.2823335644072606,9.383501299894808e-12
0.2813868214846641,9.22859831329521e-12
0.2808538160510623,9.104390829499433e-12
0.280370387135383,8.991790054146704e-12
0.27953782184303183,8.801275694368277e-12
0.2786272687125645,8.596042970816887e-12
0.27822799397726433,8.508252259699635e-12
0.2778613805144512,8.428543117794966e-12
0.27692297094936436,8.225244337557517e-12
0.27589477879814184,8.007603583999404e-12
0.2756253954669871,7.951398882594455e-12
0.275364225686372,7.900578045165461e-12
0.2743332399489604,7.686792040433152e-12
0.27318908633669964,7.45897441585251e-12
0.2730445142668553,7.431460235606437e-12
0.2729157781403357,7.405684775577239e-12
0.27264930350185085,7.310166833263552e-12
0.2723444243493995,7.084331135009154e-12
0.2721446350176401,6.941791686847152e-12
0.2718331254667376,6.722981719042623e-12
0.2718265849740241,6.717675021793597e-12
0.2715167460668189,6.506956923483712e-12
0.27132605066129134,6.3795598176514e-12
0.271007653135913,6.1733998873143915e-12
0.2708903057741149,6.09936026808416e-12
0.2708179668973759,6.05396734331428e-12
0.2705099285263581,5.863975626275479e-12
0.27030953378291006,5.7451735387761505e-12
0.27026531079720095,5.717295521908307e-12
0.2701898882835769,5.673043470615387e-12
0.2698053010702195,5.451699823843878e-12
0.26963916267597104,5.35916336273414e-12
0.2693745910344467,5.213241132430954e-12
0.2693007130172774,5.173380673408257e-12
0.2690170543219263,5.023464650098335e-12
0.2687977153943739,4.909192688360218e-12
0.26856175394253656,4.790705949221597e-12
0.26839638128907284,4.708794149897492e-12
0.26829307509607686,4.658790232997845e-12
0.26808400182499253,4.558929566064236e-12
0.26785704514252817,4.450512971418223e-12
0.26779260386534176,4.420810915656055e-12
0.26777714026585425,4.4138346520811705e-12
0.26775136958432894,4.402417403855081e-12
0.2672917799451271,4.195120511187936e-12
0.2671593279483544,4.137351456813353e-12
0.2669466420382979,4.045919266078136e-12
0.2667925345906395,3.980889140088349e-12
0.26654165838649063,3.878187206021506e-12
0.2662916588148105,3.777836524621259e-12
0.2661411312758451,3.7179959655985844e-12
0.2659266965584774,3.6352570386981605e-12
0.2657936419518982,3.584971127407182e-12
0.26533868957003814,3.416704933257271e-12
0.2653131535632734,3.4075440496750575e-12
0.26529719480704383,3.4018981315471907e-12
0.2652301785126361,3.377860449268047e-12
0.2650056378425667,3.29909374272988e-12
0.26479912637916164,3.2283780236378348e-12
0.26470038923152006,3.1940950328602178e-12
0.2645380307997617,3.139779694567448e-12
0.26430517272557175,3.0634667140998487e-12
0.2629199136059327,3.015846521213746e-12
0.26262907349109577,3.083659569883403e-12
0.2626088531082983,3.0924380677041117e-12
0.26228490754442463,3.166720892560113e-12
0.262174491233823,3.1940950328602178e-12
0.2619550586177877,3.2484264044612557e-12
0.2616526942751318,3.325248116404962e-12
0.261336844928185,3.4075440496750575e-12
0.26102388903724194,3.4918767093474277e-12
0.26071946290496933,3.574738020785561e-12
0.26051441106112017,3.6352570386981605e-12
0.26039346226787413,3.666565540372515e-12
0.26008851978783337,3.754757959986081e-12
0.26005347743452695,3.764971216024344e-12
0.2597658081507383,3.850115172904398e-12
0.25967332136431265,3.878187206021506e-12
0.2594909439970246,3.933704108906501e-12
0.2591415374882771,4.043044918736744e-12
0.2588449118944714,4.137351456813353e-12
0.2587751669952036,4.159824256745302e-12
0.2585156569878742,4.245307154612738e-12
0.2582669710773578,4.328853386155302e-12
0.25801852439676964,4.4138346520811705e-12
0.25789377017734183,4.4579696142146255e-12
0.2575031401772162,4.5963780394558976e-12
0.25727276035722096,4.681211158219205e-12
0.25720591450758296,4.708794149897492e-12
0.25705000839367137,4.76354581873132e-12
0.25665139334075154,4.915399067208618e-12
0.25638537655567567,5.023464650098335e-12
0.25603399121399806,5.161628802181177e-12
0.2558375489358277,5.24205453095283e-12
0.2555625369673843,5.35916336273414e-12
0.25541745975331437,5.420107455715078e-12
0.254977814006818,5.611736325285874e-12
0.25480057367217324,5.691260281052423e-12
0.2547619528648809,5.717295521908307e-12
0.25463203377126004,5.768448296803962e-12
0.2541815079585232,5.975411880431823e-12
0.2539174402357219,6.09936026808416e-12
0.2537244533340201,6.190876420397957e-12
0.25355723532443414,6.27266072069707e-12
0.25339012752047624,6.354622139436018e-12
0.2530903417108692,6.506956923483712e-12
0.2529338873264825,6.5845923117356666e-12
0.252477253640295,6.8241781402041906e-12
0.25231450013632767,6.912472531707555e-12
0.25226350944260384,6.941791686847152e-12
0.25215124484623,7.000914159298488e-12
0.2516948128943878,7.256335763988563e-12
0.2514490583809199,7.405684775577239e-12
0.2510790640829722,7.617785801165292e-12
0.2509196268261399,7.712693201809266e-12
0.2506155276947054,7.900578045165461e-12
0.25046120581452075,7.996482494886793e-12
0.250001216200094,8.292023295902538e-12
0.2497456977115682,8.372160063423383e-12
0.24956849138531825,8.428543117794966e-12
0.24873161886037365,8.696268436900373e-12
0.2485258294458805,8.76244209785297e-12
0.24784506916724477,8.991790054146704e-12
0.24771867742631756,9.03221064405485e-12
0.24754946119055518,9.089449423780656e-12
0.24671104834167118,9.381426822154843e-12
0.2461240728671301,9.592676604708852e-12
0.2457069267283834,9.743991005182862e-12
0.2451217504745528,9.93402358928326e-12
0.24459269355604898,1.0089606904265449e-11
0.24412350996704654,1.0233718079315333e-11
0.24344543625464035,1.0436762389017224e-11
0.24271784825036552,1.0663689275553605e-11
0.24230472615645773,1.079620353729342e-11
0.24192955915447537,1.0917597876227389e-11
0.24116645970521988,1.116714195949559e-11
0.2403375210287729,1.1433579757098082e-11
0.24000235508654852,1.1540978588164436e-11
0.23966996322110215,1.1647178714833107e-11
0.23883180156046482,1.1923374880481601e-11
0.23798053761037694,1.2208819733805482e-11
0.23766409789376092,1.2317468723441659e-11
0.2373537898391298,1.2425514618984852e-11
0.23650494865244318,1.2725593072221504e-11
0.23564666906314555,1.3027568032554327e-11
0.23533163396302084,1.3139974943823238e-11
0.2350124962837567,1.325586370113659e-11
0.23415850600452298,1.3565707682246943e-11
0.2333356887001768,1.3874026736874997e-11
0.2329934684974023,1.4006118846987885e-11
0.2326450329116043,1.4141701800795642e-11
0.23183366972894615,1.4460599597650776e-11
0.23104737205768094,1.4763354450756533e-11
0.23065411389877585,1.4918985438312286e-11
0.23022939348965785,1.508673703437962e-11
0.22948055957804167,1.539190162935796e-11
0.22878149687317859,1.568093467651081e-11
0.22831297623142313,1.5879808767655364e-11
0.22781471690899663,1.6094925317384063e-11
0.22714696113408622,1.638111226832322e-11
0.22653784306391203,1.6635565771151394e-11
0.2259575405710766,1.6883836202020836e-11
0.22530281771282884,1.717048692383626e-11
0.2247732665725789,1.740143870313024e-11
0.22431619270546918,1.760655491941846e-11
0.22359573750672068,1.7935192430433935e-11
0.22278430561555135,1.8317924152353293e-11
0.22241527942501074,1.848035568600338e-11
0.2221163300106167,1.8613924093756536e-11
0.22145035720120015,1.8920084821870182e-11
0.22121390644447403,1.9026758765555334e-11
0.22102450218274908,1.9113496720185612e-11
0.22012439596694783,1.954204017275466e-11
0.22001637574233843,1.9587770372965213e-11
0.21993804130834077,1.9624927461628662e-11
0.21917099450338562,1.9995343971020143e-11
0.21882532781429972,2.016532363245187e-11
0.217781115023093,2.0668307988892858e-11
0.21761559310148557,2.074417493606882e-11
0.21739579031594064,2.0847959132121177e-11
0.21637922331864495,2.131808417999804e-11
0.2156453416542407,2.1668380563271103e-11
0.21515091324155095,2.190856321364778e-11
0.21447795610622453,2.2241147604463747e-11
0.2139285463877274,2.2514686474190752e-11
0.21353051375571822,2.2716843414906638e-11
0.2127136361462247,2.3137944181154938e-11
0.21161557711106993,2.3727437473790432e-11
0.21143642591587758,2.381603799280349e-11
0.21099124184388085,2.4057979281016617e-11
0.21030599312207152,2.4437854584933313e-11
0.20936287473753715,2.496841904110956e-11
0.20911115238781794,2.5113953330306933e-11
0.20870299998806635,2.5313050346360773e-11
0.20782856801044902,2.5731836086164604e-11
0.20730965881822583,2.5986261755942667e-11
0.20655484435125876,2.6365753487868766e-11
0.20530423986581664,2.7004623594316698e-11
0.2052864572796232,2.701315460624607e-11
0.20527657873062105,2.7017421122792385e-11
0.2052390445795351,2.703705577990472e-11
0.2040258589663125,2.7676452414557502e-11
0.20363155188930565,2.7892340023774467e-11
0.20326343700317848,2.8088610646282642e-11
0.20277397736883482,2.8356932916308305e-11
0.20196860421991186,2.8809238139708138e-11
0.20152929228772584,2.9053685533856865e-11
0.20127003810095168,2.9203193199238045e-11
0.2002941751425514,2.976943845494197e-11
0.20023249793167225,2.980330835497005e-11
0.19929618840660002,3.0359126537628784e-11
0.19906423283317282,3.050041577209159e-11
0.19867951475781348,3.0734448095217564e-11
0.1978418432051606,3.1249341961169166e-11
0.19734169620158287,3.1562808345067896e-11
0.19706080081536576,3.1744774139168926e-11
0.19662790608966724,3.201766904220553e-11
0.19637164976014748,3.218293736161715e-11
0.19545151288132814,3.278831238565992e-11
0.19541953676365292,3.280281468809397e-11
0.195406371647538,3.2807995636179026e-11
0.19537299265023508,3.2825098571332246e-11
0.19411954918691238,3.3494881393056173e-11
0.19349002676784263,3.383835397420882e-11
0.19283006536871222,3.420370981653195e-11
0.19171606066402525,3.4831690357276584e-11
0.19159247542935556,3.490217384618123e-11
0.19155006901804764,3.492864190992705e-11
0.19145975622056788,3.497942848262522e-11
0.19027582226579776,3.566555885883074e-11
0.18971353332433832,3.5999438392231634e-11
0.1890118712890199,3.642032379027303e-11
0.18812984129403149,3.695802620198793e-11
0.18785301795255313,3.713119905561043e-11
0.18775496112233722,3.7189299246445195e-11
0.18755674457524066,3.731696839347627e-11
0.1865082043028277,3.79769097787113e-11
0.18601074860353708,3.8294911420677547e-11
0.185269280596187,3.8780588190676574e-11
0.18460981696511017,3.921540500962159e-11
0.1841865463390497,3.949883782311973e-11
0.1840372582858039,3.959939805810843e-11
0.18372622480390838,3.981071705535181e-11
0.18281518827795917,4.043805067092844e-11
0.18238023397569306,4.074061360890655e-11
0.18152521978038857,4.118114415534122e-11
0.18143221214478308,4.11961054425069e-11
0.18059163606770173,4.1325127625312644e-11
0.1799098589661209,4.1429683115209396e-11
0.17945245357481726,4.149909676485883e-11
0.1788205788899021,4.159752240555776e-11
0.17830758588071632,4.16777473794733e-11
0.17749387073780776,4.180497676358191e-11
0.1770668904208386,4.1873035255693076e-11
0.17671915739860777,4.192663480133624e-11
0.1755570867039495,4.211244624533068e-11
0.17533040032606514,4.214904157175511e-11
0.17514656488315736,4.2179672991945576e-11
0.1736414365401129,4.242217712008892e-11
0.17361093994160118,4.242753723636583e-11
0.17358671358581304,4.243222789366991e-11
0.17335714886245276,4.247111329489303e-11
0.17204241008404259,4.2688991651312536e-11
0.17190834225754872,4.27105710558134e-11
0.1717446234525664,4.2737560652092235e-11
0.1705093837917286,4.294323972404034e-11
0.1702224419018715,4.299209799318578e-11
0.16987057426302965,4.30518891517639e-11
0.16899083112302885,4.3200366555969733e-11
0.16855307512433218,4.327548061673841e-11
0.1680169743911728,4.3368529491517174e-11
0.16748741460641056,4.346177843554952e-11
0.16690007978058752,4.3562107086686716e-11
0.16618360069739221,4.368749867459747e-11
0.16599497672381008,4.3720629089479856e-11
0.16526329531643924,4.3849246927958715e-11
0.16451702510472124,4.3983105234394405e-11
0.16436944149707428,4.401020391109314e-11
0.16364256275223965,4.4142462098442695e-11
0.1630530172056778,4.4248554761136394e-11
0.16257586908455982,4.4333892515556254e-11
0.1620377246674502,4.4433427352604686e-11
0.1616008707671002,4.451349729403095e-11
0.1608018678403212,4.4659961802300565e-11
0.16044862518535116,4.4726310505657886e-11
0.1601612717472822,4.4779318992088244e-11
0.1590468415242291,4.498913978746165e-11
0.1588751099579014,4.502254625651127e-11
0.15873602492672,4.5049573876797544e-11
0.15737760103908213,4.5309293525150225e-11
0.1573170261507468,4.5319312589692686e-11
0.1573113484504725,4.5320028321930095e-11
0.15592084133164053,4.55899463830299e-11
0.15577422242837546,4.561803505960593e-11
0.15559292092242374,4.5656955645631555e-11
0.15452812392608922,4.585495389149032e-11
0.15424654893941886,4.5733451908333456e-11
0.15406702545231932,4.5656955645631555e-11
0.1532639645099852,4.5309293525150225e-11
0.1528294352785661,4.512362720273279e-11
0.15273385730209652,4.5079465386911466e-11
0.15258252536003492,4.5015436420317713e-11
0.15160178642375302,4.45965286808612e-11
0.15123600058980396,4.443904159386622e-11
0.1506621480206475,4.419268477162245e-11
0.1503839990312163,4.4075587307006614e-11
0.14975283331684194,4.3804948686547934e-11
0.14917599388576525,4.356073115823632e-11
0.1487659402191343,4.338497063737246e-11
0.14828421142428544,4.317853968357118e-11
0.1479776924085292,4.30518891517639e-11
0.1468935977618617,4.2592019175407236e-11
0.1468299922659913,4.256512149138615e-11
0.146789016651846,4.2548991035135986e-11
0.14660970636957465,4.247111329489303e-11
0.14560988929419189,4.205196737653282e-11
0.14539003459474312,4.1957767222059615e-11
0.14504482028372423,4.181356056688401e-11
0.14444023363515177,4.1560749555182226e-11
0.14396419854853204,4.136169199797627e-11
0.14327997359042985,4.107526975188562e-11
0.14321931119996034,4.104932992446608e-11
0.14255234563697217,4.077022146729989e-11
0.1421290336869007,4.0595460939654497e-11
0.14141677765857288,4.0299067202189176e-11
0.14115433872784888,4.018847831229497e-11
0.1409873390576993,4.01212568744571e-11
0.14023355828935763,3.981071705535181e-11
0.13985481543735193,3.9652592086071726e-11
0.1397700420337993,3.961753858404901e-11
0.13963525060275742,3.9559393181906525e-11
0.1387313891569445,3.918940186904753e-11
0.1383993210991237,3.905100937698597e-11
0.13787782542969462,3.8836362182986625e-11
0.13761698713933107,3.873162227377238e-11
0.13704204278672555,3.8493797358422305e-11
0.13651153689438006,3.82791900976426e-11
0.13616512326774227,3.816811580856207e-11
0.13569807526518007,3.804895020888481e-11
0.1353446073163403,3.796131900582919e-11
0.13461969945247787,3.77795011245231e-11
0.1343672879959297,3.771392653810968e-11
0.13417635297318398,3.7666902298332924e-11
0.1330918156262464,3.739484318211115e-11
0.13304955172060492,3.7385395165127465e-11
0.1330175425455713,3.737594953523829e-11
0.13278410874557403,3.731696839347627e-11
0.13186937473248928,3.708607277937458e-11
0.13174473844846943,3.705621414297457e-11
0.13158190591305433,3.701527083886573e-11
0.13072985936056403,3.680076892193777e-11
0.13045272144398856,3.672993158277097e-11
0.1300884999205663,3.663839402750263e-11
0.12960050264952874,3.6517083194671125e-11
0.12917337521451946,3.640767191580236e-11
0.12861204353405126,3.62653544467669e-11
0.12848213884744072,3.623329531497841e-11
0.12790657549812218,3.608709981531976e-11
0.12737219987508003,3.59539840659526e-11
0.12716213487070627,3.591425861267621e-11
0.1266521992514903,3.5850789163737495e-11
0.12620745557460897,3.579647606170004e-11
0.1258272304263332,3.5750148783798415e-11
0.12541012463799953,3.569711565878051e-11
0.12504644188646138,3.565260611336415e-11
0.12450544063050144,3.558510282964376e-11
0.12418023101587403,3.554466222281656e-11
0.12389640675774531,3.550875360092867e-11
0.1231981288232424,3.5421937652623524e-11
0.12296239892646854,3.5391741978117684e-11
0.12275547152842912,3.536827425053452e-11
0.1219054237851202,3.526119121956583e-11
0.12175651008266551,3.5240592716623185e-11
0.1216265061426889,3.522556897128316e-11
0.12062454154593487,3.509784830808242e-11
0.12056244735738572,3.508898063974416e-11
0.12050792369814325,3.508343948480519e-11
0.11969359752212305,3.497942848262522e-11
0.11939905413125988,3.494298715759901e-11
0.11938009477221206,3.4938572607841434e-11
0.11935826651230272,3.4937469057547786e-11
0.11830095726009023,3.480199784313941e-11
0.11820933748612453,3.4792105964290313e-11
0.11810869452322907,3.4784414224603664e-11
0.11716981742035097,3.4745432287736116e-11
0.1170500617843459,3.474049403628397e-11
0.11692564576148183,3.473610506865409e-11
0.11604390862956465,3.469991723626625e-11
0.11590215506729652,3.4695533394938314e-11
0.11575444713810347,3.4687863005240085e-11
0.11492937198844962,3.4653367231066794e-11
