"mass","coupling"
0.0036699999999999997,0.00018540559253513652
0.0039182322429445055,0.0001778279410038923
0.00461585856658295,0.00015848931924611107
0.00462,0.0001583840743565968
0.00523735881545752,0.00014125375446227614
0.00581,0.00012705803957634856
0.005872378428789654,0.00012589254117941715
0.00667271110397541,0.00011220184543019652
0.00732,0.00010227897449120149
0.007437911318741237,0.0001
0.008054529880615315,0.00008912509381337478
0.008671146899464605,0.00007943282347242822
0.00921,0.00007185658992219361
0.009240387777643638,0.00007079457843841402
0.009481342363631,0.00006309573444801941
0.009722297196709102,0.0000562341325190349
0.009963251694883608,0.00005011872336272736
0.01020420623529077,0.00004466835921509635
0.010445160953826957,0.00003981071705534985
0.010686115354618815,0.00003548133892335759
0.010927069999008696,0.00003162277660168379
0.011168024588437627,0.00002818382931264461
0.011408979016630384,0.00002511886431509582
0.0116,0.00002294038577928736
0.01162438170505014,0.000022387211385683474
0.011742035438127007,0.000019952623149688827
0.011859689118751248,0.000017782794100389232
0.011977342778192152,0.000015848931924611175
0.012094996381518772,0.000014125375446227553
0.012212649950074754,0.000012589254117941715
0.012330303509369353,0.000011220184543019654
0.012447957007945206,0.00001
0.012565610546577441,8.912509381337475e-6
0.012683263982026367,7.94328234724282e-6
0.012800917511674916,7.079457843841402e-6
0.012918571006990013,6.309573444801942e-6
0.013036224476061703,5.623413251903491e-6
0.013153877924936417,5.011872336272736e-6
0.013271531362619639,4.466835921509634e-6
0.013389184820040662,3.981071705534985e-6
0.013506838276936863,3.5481338923357597e-6
0.01362449177331959,3.162277660168379e-6
0.013742145278770277,2.8183829312644615e-6
0.01385979876583744,2.511886431509582e-6
0.013977452116465347,2.238721138568347e-6
0.014095105597879437,1.995262314968883e-6
0.014212759093078968,1.778279410038923e-6
0.014330412618492053,1.5848931924611175e-6
0.014448066049754234,1.4125375446227556e-6
0.0145657195151404,1.2589254117941712e-6
0.0146,1.2182216941089163e-6
0.014978172162068813,1.1220184543019654e-6
0.015511837259107729,1.e-6
0.016045502198623253,8.912509381337476e-7
0.016579167003733377,7.943282347242822e-7
0.017112831698657772,7.079457843841401e-7
0.01764649630124843,6.309573444801943e-7
0.01818016083363417,5.623413251903491e-7
0.01838,5.390290149388146e-7
0.01921664899134786,5.011872336272736e-7
0.020554143711866934,4.466835921509635e-7
0.021891637613140804,3.9810717055349856e-7
0.02314,3.57621012315589e-7
0.023394596478934125,3.548133892335761e-7
0.027215054022074567,3.1622776601683797e-7
0.02913,2.98743161547129e-7
0.036473731183844615,3.1622776601683797e-7
0.03667,3.167299880665621e-7
0.04160574388771873,3.548133892335761e-7
0.04616,3.9412437853155885e-7
0.05255705543978079,3.548133892335761e-7
0.05811,3.241376400124952e-7
0.060205849448296864,3.1622776601683797e-7
0.07019720422740164,2.8183829312644613e-7
0.07316,2.725655496368356e-7
0.0827957367790488,2.511886431509583e-7
0.0921,2.3246208474534542e-7
0.09956881139939854,2.238721138568347e-7
0.11595,2.0659967855094576e-7
0.1327563319309947,1.995262314968883e-7
0.14597,1.9435557001465452e-7
0.1609010975259476,1.7782794100389227e-7
0.18037169336884154,1.5848931924611173e-7
0.18377,1.5540964387272898e-7
0.19019391003933478,1.4125375446227555e-7
0.19797608198276373,1.258925411794171e-7
0.20575824548561583,1.1220184543019653e-7
0.2135404045925208,1.0000000000000001e-7
0.2213225625662562,8.912509381337478e-8
0.2291047220142859,7.943282347242822e-8
0.23135,7.688953332325339e-8
0.23504138259493132,7.079457843841401e-8
0.24022966853863276,6.309573444801943e-8
0.24224999999999997,6.037686916382116e-8
0.24480394078302894,5.623413251903491e-8
0.24898663751277447,5.0118723362727356e-8
0.25316934139647285,4.4668359215096346e-8
0.25367,4.407218565296404e-8
0.25627081994910017,3.9810717055349855e-8
0.2592252871309616,3.5481338923357604e-8
0.26217976058665027,3.162277660168378e-8
0.26513423978841566,2.8183829312644607e-8
0.26563,2.765721529322497e-8
0.2666033126694236,2.5118864315095824e-8
0.2677728798727795,2.2387211385683464e-8
0.2689424493441396,1.995262314968883e-8
0.27011202084562425,1.7782794100389225e-8
0.2712815941628146,1.5848931924611176e-8
0.2724511691047844,1.4125375446227557e-8
0.2736207455008789,1.2589254117941717e-8
0.2747903231974708,1.1220184543019652e-8
0.27595990205953713,1.e-8
0.2771294819619323,8.912509381337478e-9
0.27815,8.063708680361156e-9
0.27833081296599443,7.943282347242822e-9
0.27974951380685925,7.079457843841403e-9
0.2811682153634699,6.309573444801944e-9
0.2825869175740862,5.623413251903491e-9
0.2840056203790291,5.011872336272735e-9
0.28462,4.771989942488714e-9
0.284914773142434,5.011872336272735e-9
0.28559545234574474,5.623413251903491e-9
0.28627613112531075,6.309573444801944e-9
0.2869568094291023,7.079457843841403e-9
0.28763748719510784,7.943282347242822e-9
0.28831816435640417,8.912509381337478e-9
0.28899884083624455,9.999999999999999e-9
0.28967951654833207,1.1220184543019652e-8
0.2903601913962228,1.2589254117941714e-8
0.29104086527102296,1.4125375446227554e-8
0.29125,1.4644377182221718e-8
0.29286433263639355,1.5848931924611176e-8
0.2951946428790986,1.7782794100389225e-8
0.2975249473634288,1.995262314968883e-8
0.29985524530693514,2.2387211385683464e-8
0.3021855358258385,2.5118864315095824e-8
0.3045158179131466,2.8183829312644607e-8
0.30498,2.8853070482038525e-8
0.3087870157549275,3.162277660168379e-8
0.31354098970300276,3.5481338923357604e-8
0.3182949402154409,3.9810717055349855e-8
0.31935,4.086465873879068e-8
0.3248940536637369,4.4668359215096346e-8
0.33201941823818915,5.0118723362727356e-8
0.3344,5.2122750482381554e-8
0.3424847017055893,5.623413251903491e-8
0.35016,6.052602959604166e-8
0.35616062543021204,6.309573444801943e-8
0.36667,6.80045052765406e-8
0.3844758729887227,7.079457843841401e-8
0.41141,7.538219492231378e-8
0.44404313962798847,7.943282347242822e-8
0.46161,8.179009684444758e-8
0.46810662652557555,8.912509381337478e-8
0.4767522093320343,1.0000000000000001e-7
0.4853974438950842,1.1220184543019653e-7
0.4940422797651822,1.2589254117941712e-7
0.5026866593753454,1.4125375446227555e-7
0.5113305170568011,1.5848931924611173e-7
0.51793,1.7315463865257224e-7
0.5197076624002908,1.7782794100389227e-7
0.527224922150224,1.995262314968883e-7
0.5347415240395139,2.238721138568347e-7
0.5422573753423768,2.511886431509583e-7
0.5497723705395707,2.8183829312644613e-7
0.557286389589748,3.1622776601683797e-7
0.5647992959707466,3.548133892335761e-7
0.5723109344648227,3.9810717055349856e-7
0.5798211286531973,4.466835921509635e-7
0.58113,4.5595856396526937e-7
0.5902932244001764,5.011872336272736e-7
0.601387591449197,5.623413251903491e-7
0.6124780097773506,6.309573444801946e-7
0.6235639026562192,7.079457843841401e-7
0.6346446122474099,7.943282347242822e-7
0.6457193886333932,8.912509381337476e-7
0.65204,9.525848273858309e-7
0.6580001329531697,1.e-6
0.6718843449658378,1.1220184543019654e-6
0.6857551231546888,1.2589254117941712e-6
0.6996104898520545,1.4125375446227556e-6
0.7134481944460558,1.5848931924611175e-6
0.7272656789422602,1.778279410038923e-6
0.7316,1.8450957458535693e-6
0.733061075155507,1.995262314968883e-6
0.73333,2.0252453804591973e-6
0.7452493377091405,1.995262314968883e-6
0.8394756670849505,1.778279410038923e-6
0.91667,1.6186403630454137e-6
1.053631105208481,1.778279410038923e-6
1.1,1.837866002409945e-6
1.1992066660956753,1.995262314968883e-6
1.28333,2.143388049228525e-6
1.3725836587520084,2.238721138568347e-6
1.46667,2.349592026808885e-6
1.5743183911506209,2.5118864315095814e-6
1.7518990509805517,2.8183829312644606e-6
1.83333,2.979062587847888e-6
1.880178912888689,3.162277660168379e-6
1.9678774388616813,3.5481338923357606e-6
2.053840156521945,3.981071705534985e-6
2.1379017589193765,4.466835921509634e-6
2.2,4.876278624093978e-6
2.261078733690526,5.011872336272736e-6
2.4987842705174357,5.623413251903491e-6
2.56667,5.827907732767416e-6
2.6570471126168407,6.309573444801942e-6
2.7784807143031074,7.079457843841402e-6
2.890898652496261,7.94328234724282e-6
2.93333,8.328388957752835e-6
3.0097512340149413,8.912509381337476e-6
3.11741870130759,0.00001
3.204186189215541,0.000011220184543019654
3.273509239302217,0.000012589254117941715
3.3,0.000013297224762196285
3.372846488682774,0.000014125375446227553
3.479051921212172,0.000015848931924611175
3.554332453665444,0.000017782794100389232
3.602439927636537,0.000019952623149688827
3.626229720763545,0.000022387211385683474
3.6280969474412648,0.00002511886431509582
3.6102823825362798,0.00002818382931264461
3.5750829228563696,0.000031622776601683795
3.5249780305433456,0.0000354813389233576
3.462684992536258,0.00003981071705534985
3.391165040663233,0.00004466835921509635
3.313602690403821,0.00005011872336272736
3.3,0.000051046743786352325
3.263264856150579,0.0000562341325190349
3.2147716454528634,0.00006309573444801941
3.162242963823185,0.00007079457843841402
3.1061200685758124,0.00007943282347242818
3.046607733510916,0.00008912509381337478
2.983599737960105,0.0001
2.9333299999999998,0.00010899399530915984
2.9153674275247017,0.00011220184543019652
2.8403770106171264,0.00012589254117941715
2.7636361445711772,0.00014125375446227614
2.68526843327159,0.00015848931924611107
2.6054231745555585,0.0001778279410038923
2.5666700000000002,0.00018768528137564955
2.520400849562861,0.00019952623149688828
2.4324747911954177,0.00022387211385683467
2.34676538501361,0.0002511886431509592
2.2644976813807434,0.00028183829312644496
2.2,0.00030982014909291313
2.188181666438892,0.000316227766016838
2.1209973384615415,0.000354813389233576
2.055851339514736,0.0003981071705534986
1.9930370206842447,0.0004466835921509653
1.9327106460354555,0.0005011872336272714
1.8748535756043854,0.0005623413251903491
1.83333,0.0006122101996673034
1.8149075799032839,0.0006309573444801943
1.742427471457786,0.0007079457843841403
1.6685853515283928,0.0007943282347242854
1.593238226022108,0.0008912509381337442
1.5165753083630256,0.0009999999999999998
1.46667,0.0010761571619609066
1.4456909161900022,0.0011220184543019652
1.3899813776558436,0.0012589254117941716
1.3393585065097664,0.001412537544622761
1.29375834281991,0.0015848931924611108
1.28333,0.0016293017619330328
1.2432236023504262,0.0017782794100389228
1.1925899749851712,0.001995262314968883
1.1447428363954102,0.0022387211385683473
1.1,0.002509571802734859
1.099626306963263,0.0025118864315095924
1.0531399085495754,0.002818382931264449
1.0095969896048622,0.00316227766016838
0.9690301975572784,0.0035481338923357615
0.931479635395786,0.0039810717055349856
0.9166700000000001,0.0041744472217954695
0.8857027298381803,0.004466835921509653
0.8357758960735567,0.005011872336272714
0.789929974633496,0.00562341325190349
0.748062625045085,0.006309573444801944
0.73333,0.0065842414290226536
0.7327384691296752,0.007079457843841402
0.7317843175794284,0.007943282347242854
0.7316,0.00811620700712002
0.7111695666283695,0.008912509381337442
0.6866721612681939,0.010000000000000002
0.6631845434339573,0.011220184543019653
0.65204,0.011864951839869312
0.6407050518436903,0.012589254117941713
0.6185592656536485,0.014125375446227611
0.5966457062854486,0.01584893192461111
0.58113,0.017196535169783717
0.5751575183747939,0.01778279410038923
0.5544364243133459,0.019952623149688826
0.5341554333628861,0.022387211385683472
0.51793,0.024588520390388162
0.5143262098766566,0.025118864315095923
0.49500146749630203,0.02818382931264449
0.47676561583158217,0.0316227766016838
0.46161,0.03499788860682297
0.45862284667156733,0.0354813389233576
0.4341717572038302,0.03981071705534985
0.41193265292983877,0.044668359215096536
0.41141000000000005,0.04479234406561486
0.39132000868334227,0.05011872336272715
0.37220403930861884,0.05623413251903489
0.36667,0.05819545488091289
0.3555349603372672,0.06309573444801944
0.35016,0.06571046219161931
0.338993035068559,0.07079457843841402
0.3344,0.07296494815123307
0.3238226157944094,0.07943282347242855
0.31935,0.08234745281579545
0.3104727209451123,0.08912509381337441
0.30498,0.09369487717441642
0.29960043203824027,0.1
0.29125,0.11050693012204295
0.2905276537386317,0.11220184543019654
0.28479419810162865,0.12589254117941712
0.28462,0.1263120238792093
0.27815,0.12731735855351062
0.26563,0.12686537794809968
0.25367,0.13160596789504272
0.24230318228698472,0.14125375446227612
0.24225,0.14130134749046516
0.23135,0.15375408363901238
0.22719774010371038,0.15848931924611237
0.2125185672390681,0.17782794100389226
0.19982299397732478,0.19952623149688833
0.18881007281377848,0.2238721138568347
0.18377,0.23718634424391308
0.17812609201156626,0.2511886431509592
0.16757138994558726,0.28183829312644726
0.15817073643849722,0.31622776601683794
0.14981484036885917,0.354813389233576
0.14597,0.3757009545453229
0.14164855734715398,0.39810717055349853
0.13361817325693667,0.44668359215096526
0.12641613369199955,0.5011872336272756
0.11996090128765521,0.5623413251903492
0.11595,0.6078362430439104
0.11379506433603981,0.6309573444801942
0.1074550909805152,0.7079457843841405
0.10173439791664013,0.7943282347242854
0.09658535643600485,0.8912509381337517
0.0921,0.9963139618670156
0.09193462121221063,1.
